Created as New Dataset,Sample 710 By Administrator Date Monday, September 21 2026
cm-1,%T
4000.00,99.17
3999.00,99.17
3998.00,99.17
3997.00,99.17
3996.00,99.17
3995.00,99.17
3994.00,99.16
3993.00,99.16
3992.00,99.16
3991.00,99.16
3990.00,99.17
3989.00,99.17
3988.00,99.17
3987.00,99.18
3986.00,99.18
3985.00,99.17
3984.00,99.17
3983.00,99.16
3982.00,99.16
3981.00,99.16
3980.00,99.17
3979.00,99.17
3978.00,99.16
3977.00,99.16
3976.00,99.15
3975.00,99.15
3974.00,99.16
3973.00,99.16
3972.00,99.16
3971.00,99.16
3970.00,99.15
3969.00,99.15
3968.00,99.15
3967.00,99.16
3966.00,99.16
3965.00,99.16
3964.00,99.16
3963.00,99.16
3962.00,99.16
3961.00,99.16
3960.00,99.16
3959.00,99.16
3958.00,99.16
3957.00,99.16
3956.00,99.15
3955.00,99.15
3954.00,99.15
3953.00,99.15
3952.00,99.15
3951.00,99.16
3950.00,99.16
3949.00,99.16
3948.00,99.16
3947.00,99.15
3946.00,99.15
3945.00,99.15
3944.00,99.15
3943.00,99.15
3942.00,99.15
3941.00,99.15
3940.00,99.15
3939.00,99.15
3938.00,99.15
3937.00,99.15
3936.00,99.15
3935.00,99.15
3934.00,99.15
3933.00,99.15
3932.00,99.14
3931.00,99.14
3930.00,99.14
3929.00,99.14
3928.00,99.14
3927.00,99.15
3926.00,99.15
3925.00,99.15
3924.00,99.15
3923.00,99.15
3922.00,99.15
3921.00,99.15
3920.00,99.14
3919.00,99.14
3918.00,99.14
3917.00,99.14
3916.00,99.14
3915.00,99.14
3914.00,99.14
3913.00,99.14
3912.00,99.14
3911.00,99.14
3910.00,99.14
3909.00,99.14
3908.00,99.14
3907.00,99.14
3906.00,99.14
3905.00,99.14
3904.00,99.14
3903.00,99.14
3902.00,99.14
3901.00,99.14
3900.00,99.14
3899.00,99.14
3898.00,99.14
3897.00,99.14
3896.00,99.13
3895.00,99.13
3894.00,99.13
3893.00,99.13
3892.00,99.13
3891.00,99.13
3890.00,99.13
3889.00,99.13
3888.00,99.13
3887.00,99.13
3886.00,99.14
3885.00,99.14
3884.00,99.14
3883.00,99.14
3882.00,99.14
3881.00,99.13
3880.00,99.12
3879.00,99.12
3878.00,99.12
3877.00,99.12
3876.00,99.13
3875.00,99.13
3874.00,99.13
3873.00,99.12
3872.00,99.13
3871.00,99.13
3870.00,99.14
3869.00,99.14
3868.00,99.14
3867.00,99.14
3866.00,99.15
3865.00,99.15
3864.00,99.14
3863.00,99.14
3862.00,99.13
3861.00,99.12
3860.00,99.12
3859.00,99.11
3858.00,99.11
3857.00,99.11
3856.00,99.12
3855.00,99.13
3854.00,99.14
3853.00,99.15
3852.00,99.15
3851.00,99.16
3850.00,99.16
3849.00,99.15
3848.00,99.15
3847.00,99.15
3846.00,99.14
3845.00,99.14
3844.00,99.13
3843.00,99.13
3842.00,99.13
3841.00,99.13
3840.00,99.13
3839.00,99.13
3838.00,99.13
3837.00,99.14
3836.00,99.14
3835.00,99.15
3834.00,99.15
3833.00,99.15
3832.00,99.16
3831.00,99.16
3830.00,99.16
3829.00,99.16
3828.00,99.15
3827.00,99.14
3826.00,99.13
3825.00,99.12
3824.00,99.12
3823.00,99.11
3822.00,99.11
3821.00,99.11
3820.00,99.12
3819.00,99.13
3818.00,99.13
3817.00,99.14
3816.00,99.14
3815.00,99.14
3814.00,99.15
3813.00,99.15
3812.00,99.15
3811.00,99.14
3810.00,99.14
3809.00,99.14
3808.00,99.13
3807.00,99.13
3806.00,99.13
3805.00,99.13
3804.00,99.14
3803.00,99.14
3802.00,99.14
3801.00,99.14
3800.00,99.15
3799.00,99.15
3798.00,99.15
3797.00,99.15
3796.00,99.15
3795.00,99.15
3794.00,99.15
3793.00,99.14
3792.00,99.14
3791.00,99.14
3790.00,99.14
3789.00,99.14
3788.00,99.14
3787.00,99.13
3786.00,99.13
3785.00,99.13
3784.00,99.13
3783.00,99.13
3782.00,99.13
3781.00,99.14
3780.00,99.15
3779.00,99.16
3778.00,99.16
3777.00,99.15
3776.00,99.15
3775.00,99.15
3774.00,99.15
3773.00,99.14
3772.00,99.14
3771.00,99.14
3770.00,99.14
3769.00,99.14
3768.00,99.14
3767.00,99.14
3766.00,99.14
3765.00,99.14
3764.00,99.14
3763.00,99.14
3762.00,99.14
3761.00,99.14
3760.00,99.14
3759.00,99.14
3758.00,99.14
3757.00,99.14
3756.00,99.13
3755.00,99.13
3754.00,99.12
3753.00,99.11
3752.00,99.10
3751.00,99.09
3750.00,99.08
3749.00,99.08
3748.00,99.09
3747.00,99.10
3746.00,99.12
3745.00,99.13
3744.00,99.14
3743.00,99.14
3742.00,99.13
3741.00,99.13
3740.00,99.12
3739.00,99.11
3738.00,99.11
3737.00,99.11
3736.00,99.11
3735.00,99.13
3734.00,99.15
3733.00,99.16
3732.00,99.17
3731.00,99.18
3730.00,99.17
3729.00,99.16
3728.00,99.14
3727.00,99.13
3726.00,99.12
3725.00,99.12
3724.00,99.12
3723.00,99.13
3722.00,99.14
3721.00,99.15
3720.00,99.15
3719.00,99.14
3718.00,99.14
3717.00,99.13
3716.00,99.13
3715.00,99.13
3714.00,99.13
3713.00,99.12
3712.00,99.12
3711.00,99.12
3710.00,99.13
3709.00,99.14
3708.00,99.15
3707.00,99.16
3706.00,99.17
3705.00,99.17
3704.00,99.17
3703.00,99.17
3702.00,99.16
3701.00,99.16
3700.00,99.15
3699.00,99.14
3698.00,99.13
3697.00,99.13
3696.00,99.13
3695.00,99.13
3694.00,99.13
3693.00,99.13
3692.00,99.13
3691.00,99.13
3690.00,99.13
3689.00,99.13
3688.00,99.14
3687.00,99.14
3686.00,99.14
3685.00,99.14
3684.00,99.15
3683.00,99.15
3682.00,99.15
3681.00,99.14
3680.00,99.14
3679.00,99.14
3678.00,99.13
3677.00,99.13
3676.00,99.13
3675.00,99.13
3674.00,99.14
3673.00,99.15
3672.00,99.15
3671.00,99.16
3670.00,99.16
3669.00,99.16
3668.00,99.16
3667.00,99.16
3666.00,99.16
3665.00,99.16
3664.00,99.16
3663.00,99.16
3662.00,99.15
3661.00,99.14
3660.00,99.13
3659.00,99.13
3658.00,99.13
3657.00,99.14
3656.00,99.14
3655.00,99.14
3654.00,99.14
3653.00,99.14
3652.00,99.14
3651.00,99.14
3650.00,99.14
3649.00,99.14
3648.00,99.15
3647.00,99.15
3646.00,99.15
3645.00,99.15
3644.00,99.14
3643.00,99.14
3642.00,99.14
3641.00,99.15
3640.00,99.16
3639.00,99.17
3638.00,99.17
3637.00,99.17
3636.00,99.16
3635.00,99.15
3634.00,99.14
3633.00,99.13
3632.00,99.13
3631.00,99.13
3630.00,99.14
3629.00,99.15
3628.00,99.15
3627.00,99.16
3626.00,99.17
3625.00,99.17
3624.00,99.17
3623.00,99.17
3622.00,99.17
3621.00,99.17
3620.00,99.17
3619.00,99.16
3618.00,99.16
3617.00,99.16
3616.00,99.15
3615.00,99.14
3614.00,99.13
3613.00,99.12
3612.00,99.12
3611.00,99.13
3610.00,99.14
3609.00,99.15
3608.00,99.16
3607.00,99.16
3606.00,99.16
3605.00,99.16
3604.00,99.16
3603.00,99.16
3602.00,99.16
3601.00,99.16
3600.00,99.15
3599.00,99.15
3598.00,99.15
3597.00,99.15
3596.00,99.16
3595.00,99.16
3594.00,99.17
3593.00,99.18
3592.00,99.18
3591.00,99.19
3590.00,99.20
3589.00,99.20
3588.00,99.20
3587.00,99.19
3586.00,99.19
3585.00,99.19
3584.00,99.19
3583.00,99.20
3582.00,99.20
3581.00,99.20
3580.00,99.20
3579.00,99.20
3578.00,99.20
3577.00,99.20
3576.00,99.21
3575.00,99.21
3574.00,99.21
3573.00,99.22
3572.00,99.22
3571.00,99.22
3570.00,99.22
3569.00,99.21
3568.00,99.21
3567.00,99.21
3566.00,99.20
3565.00,99.20
3564.00,99.20
3563.00,99.19
3562.00,99.19
3561.00,99.19
3560.00,99.19
3559.00,99.19
3558.00,99.19
3557.00,99.19
3556.00,99.18
3555.00,99.18
3554.00,99.18
3553.00,99.19
3552.00,99.19
3551.00,99.20
3550.00,99.19
3549.00,99.19
3548.00,99.18
3547.00,99.18
3546.00,99.18
3545.00,99.19
3544.00,99.19
3543.00,99.19
3542.00,99.19
3541.00,99.18
3540.00,99.18
3539.00,99.18
3538.00,99.18
3537.00,99.18
3536.00,99.18
3535.00,99.17
3534.00,99.17
3533.00,99.17
3532.00,99.17
3531.00,99.17
3530.00,99.16
3529.00,99.16
3528.00,99.16
3527.00,99.16
3526.00,99.16
3525.00,99.16
3524.00,99.16
3523.00,99.17
3522.00,99.17
3521.00,99.17
3520.00,99.17
3519.00,99.17
3518.00,99.17
3517.00,99.17
3516.00,99.16
3515.00,99.16
3514.00,99.16
3513.00,99.16
3512.00,99.15
3511.00,99.15
3510.00,99.14
3509.00,99.13
3508.00,99.14
3507.00,99.14
3506.00,99.15
3505.00,99.15
3504.00,99.15
3503.00,99.14
3502.00,99.14
3501.00,99.13
3500.00,99.13
3499.00,99.13
3498.00,99.14
3497.00,99.15
3496.00,99.15
3495.00,99.15
3494.00,99.15
3493.00,99.15
3492.00,99.14
3491.00,99.14
3490.00,99.13
3489.00,99.14
3488.00,99.14
3487.00,99.14
3486.00,99.14
3485.00,99.14
3484.00,99.14
3483.00,99.14
3482.00,99.14
3481.00,99.14
3480.00,99.13
3479.00,99.13
3478.00,99.12
3477.00,99.12
3476.00,99.13
3475.00,99.13
3474.00,99.14
3473.00,99.14
3472.00,99.14
3471.00,99.14
3470.00,99.14
3469.00,99.13
3468.00,99.13
3467.00,99.13
3466.00,99.14
3465.00,99.14
3464.00,99.14
3463.00,99.14
3462.00,99.13
3461.00,99.13
3460.00,99.12
3459.00,99.12
3458.00,99.11
3457.00,99.11
3456.00,99.10
3455.00,99.10
3454.00,99.10
3453.00,99.10
3452.00,99.10
3451.00,99.10
3450.00,99.10
3449.00,99.11
3448.00,99.11
3447.00,99.11
3446.00,99.10
3445.00,99.09
3444.00,99.09
3443.00,99.10
3442.00,99.10
3441.00,99.10
3440.00,99.11
3439.00,99.11
3438.00,99.11
3437.00,99.10
3436.00,99.09
3435.00,99.09
3434.00,99.09
3433.00,99.09
3432.00,99.09
3431.00,99.09
3430.00,99.10
3429.00,99.10
3428.00,99.10
3427.00,99.10
3426.00,99.10
3425.00,99.09
3424.00,99.08
3423.00,99.08
3422.00,99.08
3421.00,99.08
3420.00,99.07
3419.00,99.07
3418.00,99.08
3417.00,99.08
3416.00,99.08
3415.00,99.08
3414.00,99.09
3413.00,99.09
3412.00,99.09
3411.00,99.10
3410.00,99.09
3409.00,99.09
3408.00,99.08
3407.00,99.08
3406.00,99.07
3405.00,99.07
3404.00,99.07
3403.00,99.08
3402.00,99.08
3401.00,99.08
3400.00,99.08
3399.00,99.08
3398.00,99.08
3397.00,99.07
3396.00,99.07
3395.00,99.07
3394.00,99.07
3393.00,99.07
3392.00,99.06
3391.00,99.06
3390.00,99.07
3389.00,99.07
3388.00,99.07
3387.00,99.08
3386.00,99.08
3385.00,99.08
3384.00,99.07
3383.00,99.07
3382.00,99.06
3381.00,99.06
3380.00,99.06
3379.00,99.06
3378.00,99.06
3377.00,99.06
3376.00,99.06
3375.00,99.06
3374.00,99.06
3373.00,99.06
3372.00,99.06
3371.00,99.05
3370.00,99.05
3369.00,99.05
3368.00,99.04
3367.00,99.04
3366.00,99.04
3365.00,99.04
3364.00,99.04
3363.00,99.04
3362.00,99.04
3361.00,99.04
3360.00,99.04
3359.00,99.04
3358.00,99.04
3357.00,99.03
3356.00,99.03
3355.00,99.03
3354.00,99.03
3353.00,99.03
3352.00,99.03
3351.00,99.03
3350.00,99.03
3349.00,99.03
3348.00,99.03
3347.00,99.03
3346.00,99.03
3345.00,99.04
3344.00,99.04
3343.00,99.03
3342.00,99.03
3341.00,99.02
3340.00,99.03
3339.00,99.03
3338.00,99.03
3337.00,99.03
3336.00,99.03
3335.00,99.02
3334.00,99.02
3333.00,99.02
3332.00,99.02
3331.00,99.02
3330.00,99.01
3329.00,99.01
3328.00,99.01
3327.00,99.01
3326.00,99.00
3325.00,99.00
3324.00,99.00
3323.00,99.01
3322.00,99.01
3321.00,99.00
3320.00,99.00
3319.00,99.00
3318.00,99.00
3317.00,99.00
3316.00,99.00
3315.00,99.00
3314.00,99.00
3313.00,99.00
3312.00,99.00
3311.00,98.99
3310.00,98.99
3309.00,98.99
3308.00,98.99
3307.00,98.99
3306.00,98.99
3305.00,98.99
3304.00,98.99
3303.00,98.99
3302.00,98.98
3301.00,98.98
3300.00,98.99
3299.00,98.99
3298.00,98.99
3297.00,98.99
3296.00,99.00
3295.00,99.00
3294.00,99.00
3293.00,99.00
3292.00,98.99
3291.00,98.99
3290.00,98.99
3289.00,98.99
3288.00,98.99
3287.00,98.98
3286.00,98.98
3285.00,98.98
3284.00,98.98
3283.00,98.98
3282.00,98.98
3281.00,98.98
3280.00,98.98
3279.00,98.97
3278.00,98.98
3277.00,98.97
3276.00,98.97
3275.00,98.97
3274.00,98.98
3273.00,98.98
3272.00,98.99
3271.00,98.99
3270.00,98.99
3269.00,98.99
3268.00,98.98
3267.00,98.98
3266.00,98.98
3265.00,98.99
3264.00,98.99
3263.00,98.99
3262.00,98.99
3261.00,98.99
3260.00,98.99
3259.00,98.98
3258.00,98.97
3257.00,98.97
3256.00,98.98
3255.00,98.98
3254.00,98.99
3253.00,98.99
3252.00,99.00
3251.00,99.00
3250.00,99.00
3249.00,99.00
3248.00,98.99
3247.00,98.99
3246.00,98.99
3245.00,98.99
3244.00,98.99
3243.00,98.99
3242.00,98.99
3241.00,98.99
3240.00,98.99
3239.00,98.99
3238.00,98.99
3237.00,98.99
3236.00,98.98
3235.00,98.98
3234.00,98.98
3233.00,98.97
3232.00,98.98
3231.00,98.98
3230.00,98.99
3229.00,98.99
3228.00,98.99
3227.00,98.99
3226.00,98.99
3225.00,98.99
3224.00,98.99
3223.00,98.99
3222.00,98.99
3221.00,98.99
3220.00,98.99
3219.00,98.99
3218.00,98.99
3217.00,98.99
3216.00,98.99
3215.00,98.99
3214.00,98.99
3213.00,99.00
3212.00,99.00
3211.00,99.01
3210.00,99.01
3209.00,99.02
3208.00,99.02
3207.00,99.02
3206.00,99.02
3205.00,99.02
3204.00,99.02
3203.00,99.01
3202.00,99.01
3201.00,99.00
3200.00,99.00
3199.00,99.00
3198.00,99.00
3197.00,98.99
3196.00,98.99
3195.00,98.99
3194.00,99.00
3193.00,99.00
3192.00,99.00
3191.00,99.00
3190.00,98.99
3189.00,98.99
3188.00,98.99
3187.00,99.00
3186.00,99.00
3185.00,99.01
3184.00,99.01
3183.00,99.00
3182.00,99.00
3181.00,99.00
3180.00,99.00
3179.00,99.01
3178.00,99.01
3177.00,99.00
3176.00,99.00
3175.00,98.99
3174.00,99.00
3173.00,99.00
3172.00,99.01
3171.00,99.01
3170.00,99.01
3169.00,99.02
3168.00,99.02
3167.00,99.02
3166.00,99.02
3165.00,99.02
3164.00,99.01
3163.00,99.01
3162.00,99.01
3161.00,99.00
3160.00,99.00
3159.00,99.00
3158.00,99.00
3157.00,99.00
3156.00,99.00
3155.00,99.00
3154.00,99.00
3153.00,99.01
3152.00,99.01
3151.00,99.01
3150.00,99.01
3149.00,99.01
3148.00,99.01
3147.00,99.01
3146.00,99.01
3145.00,99.01
3144.00,99.00
3143.00,99.00
3142.00,99.00
3141.00,99.00
3140.00,99.00
3139.00,99.01
3138.00,99.01
3137.00,99.01
3136.00,99.01
3135.00,99.01
3134.00,99.00
3133.00,99.00
3132.00,99.00
3131.00,98.99
3130.00,99.00
3129.00,99.00
3128.00,99.00
3127.00,99.00
3126.00,99.00
3125.00,99.00
3124.00,99.00
3123.00,99.00
3122.00,99.00
3121.00,99.01
3120.00,99.01
3119.00,99.01
3118.00,99.02
3117.00,99.02
3116.00,99.02
3115.00,99.02
3114.00,99.02
3113.00,99.02
3112.00,99.01
3111.00,99.01
3110.00,99.00
3109.00,99.00
3108.00,98.99
3107.00,98.98
3106.00,98.98
3105.00,98.98
3104.00,98.98
3103.00,98.98
3102.00,98.98
3101.00,98.98
3100.00,98.98
3099.00,98.98
3098.00,98.98
3097.00,98.99
3096.00,98.98
3095.00,98.98
3094.00,98.97
3093.00,98.96
3092.00,98.96
3091.00,98.96
3090.00,98.96
3089.00,98.96
3088.00,98.95
3087.00,98.95
3086.00,98.94
3085.00,98.94
3084.00,98.94
3083.00,98.94
3082.00,98.95
3081.00,98.95
3080.00,98.95
3079.00,98.95
3078.00,98.95
3077.00,98.95
3076.00,98.95
3075.00,98.95
3074.00,98.95
3073.00,98.94
3072.00,98.94
3071.00,98.94
3070.00,98.94
3069.00,98.93
3068.00,98.93
3067.00,98.93
3066.00,98.94
3065.00,98.94
3064.00,98.94
3063.00,98.94
3062.00,98.94
3061.00,98.94
3060.00,98.94
3059.00,98.94
3058.00,98.94
3057.00,98.94
3056.00,98.94
3055.00,98.93
3054.00,98.93
3053.00,98.93
3052.00,98.93
3051.00,98.93
3050.00,98.93
3049.00,98.93
3048.00,98.93
3047.00,98.93
3046.00,98.92
3045.00,98.92
3044.00,98.92
3043.00,98.92
3042.00,98.92
3041.00,98.91
3040.00,98.91
3039.00,98.91
3038.00,98.90
3037.00,98.90
3036.00,98.90
3035.00,98.90
3034.00,98.90
3033.00,98.90
3032.00,98.90
3031.00,98.89
3030.00,98.89
3029.00,98.88
3028.00,98.88
3027.00,98.88
3026.00,98.88
3025.00,98.89
3024.00,98.89
3023.00,98.89
3022.00,98.89
3021.00,98.89
3020.00,98.89
3019.00,98.89
3018.00,98.89
3017.00,98.89
3016.00,98.89
3015.00,98.89
3014.00,98.89
3013.00,98.90
3012.00,98.90
3011.00,98.90
3010.00,98.89
3009.00,98.89
3008.00,98.89
3007.00,98.88
3006.00,98.88
3005.00,98.88
3004.00,98.88
3003.00,98.89
3002.00,98.89
3001.00,98.89
3000.00,98.89
2999.00,98.89
2998.00,98.88
2997.00,98.87
2996.00,98.87
2995.00,98.87
2994.00,98.87
2993.00,98.87
2992.00,98.87
2991.00,98.87
2990.00,98.86
2989.00,98.85
2988.00,98.85
2987.00,98.84
2986.00,98.84
2985.00,98.84
2984.00,98.83
2983.00,98.82
2982.00,98.82
2981.00,98.81
2980.00,98.80
2979.00,98.79
2978.00,98.79
2977.00,98.78
2976.00,98.77
2975.00,98.76
2974.00,98.74
2973.00,98.73
2972.00,98.71
2971.00,98.69
2970.00,98.67
2969.00,98.65
2968.00,98.63
2967.00,98.61
2966.00,98.59
2965.00,98.57
2964.00,98.56
2963.00,98.54
2962.00,98.52
2961.00,98.49
2960.00,98.46
2959.00,98.44
2958.00,98.41
2957.00,98.39
2956.00,98.36
2955.00,98.33
2954.00,98.29
2953.00,98.25
2952.00,98.19
2951.00,98.13
2950.00,98.06
2949.00,97.99
2948.00,97.91
2947.00,97.82
2946.00,97.72
2945.00,97.61
2944.00,97.47
2943.00,97.31
2942.00,97.13
2941.00,96.93
2940.00,96.73
2939.00,96.50
2938.00,96.25
2937.00,95.98
2936.00,95.68
2935.00,95.35
2934.00,95.00
2933.00,94.63
2932.00,94.22
2931.00,93.76
2930.00,93.27
2929.00,92.72
2928.00,92.11
2927.00,91.44
2926.00,90.69
2925.00,89.85
2924.00,88.93
2923.00,87.92
2922.00,86.84
2921.00,85.72
2920.00,84.60
2919.00,83.53
2918.00,82.60
2917.00,81.89
2916.00,81.48
2915.00,81.41
2914.00,81.69
2913.00,82.25
2912.00,83.01
2911.00,83.86
2910.00,84.73
2909.00,85.56
2908.00,86.31
2907.00,86.98
2906.00,87.56
2905.00,88.07
2904.00,88.51
2903.00,88.88
2902.00,89.20
2901.00,89.48
2900.00,89.74
2899.00,89.97
2898.00,90.19
2897.00,90.41
2896.00,90.63
2895.00,90.84
2894.00,91.06
2893.00,91.28
2892.00,91.50
2891.00,91.72
2890.00,91.95
2889.00,92.17
2888.00,92.40
2887.00,92.64
2886.00,92.88
2885.00,93.13
2884.00,93.38
2883.00,93.64
2882.00,93.90
2881.00,94.16
2880.00,94.42
2879.00,94.68
2878.00,94.93
2877.00,95.17
2876.00,95.39
2875.00,95.58
2874.00,95.75
2873.00,95.89
2872.00,96.00
2871.00,96.09
2870.00,96.16
2869.00,96.20
2868.00,96.21
2867.00,96.19
2866.00,96.14
2865.00,96.06
2864.00,95.94
2863.00,95.78
2862.00,95.57
2861.00,95.31
2860.00,94.96
2859.00,94.54
2858.00,94.01
2857.00,93.36
2856.00,92.55
2855.00,91.54
2854.00,90.31
2853.00,88.85
2852.00,87.20
2851.00,85.51
2850.00,83.96
2849.00,82.80
2848.00,82.22
2847.00,82.30
2846.00,82.98
2845.00,84.09
2844.00,85.43
2843.00,86.81
2842.00,88.12
2841.00,89.29
2840.00,90.31
2839.00,91.18
2838.00,91.92
2837.00,92.55
2836.00,93.08
2835.00,93.54
2834.00,93.92
2833.00,94.26
2832.00,94.55
2831.00,94.81
2830.00,95.04
2829.00,95.25
2828.00,95.44
2827.00,95.61
2826.00,95.76
2825.00,95.90
2824.00,96.03
2823.00,96.14
2822.00,96.24
2821.00,96.33
2820.00,96.42
2819.00,96.50
2818.00,96.58
2817.00,96.65
2816.00,96.72
2815.00,96.78
2814.00,96.84
2813.00,96.89
2812.00,96.94
2811.00,96.99
2810.00,97.04
2809.00,97.09
2808.00,97.14
2807.00,97.18
2806.00,97.23
2805.00,97.27
2804.00,97.30
2803.00,97.34
2802.00,97.37
2801.00,97.39
2800.00,97.42
2799.00,97.44
2798.00,97.47
2797.00,97.49
2796.00,97.52
2795.00,97.55
2794.00,97.58
2793.00,97.61
2792.00,97.64
2791.00,97.67
2790.00,97.70
2789.00,97.72
2788.00,97.75
2787.00,97.77
2786.00,97.80
2785.00,97.82
2784.00,97.85
2783.00,97.87
2782.00,97.89
2781.00,97.90
2780.00,97.92
2779.00,97.94
2778.00,97.96
2777.00,97.97
2776.00,97.99
2775.00,98.01
2774.00,98.02
2773.00,98.04
2772.00,98.05
2771.00,98.06
2770.00,98.06
2769.00,98.07
2768.00,98.08
2767.00,98.09
2766.00,98.10
2765.00,98.12
2764.00,98.13
2763.00,98.14
2762.00,98.14
2761.00,98.15
2760.00,98.16
2759.00,98.16
2758.00,98.17
2757.00,98.17
2756.00,98.18
2755.00,98.18
2754.00,98.19
2753.00,98.21
2752.00,98.22
2751.00,98.23
2750.00,98.24
2749.00,98.24
2748.00,98.25
2747.00,98.25
2746.00,98.24
2745.00,98.24
2744.00,98.24
2743.00,98.25
2742.00,98.25
2741.00,98.25
2740.00,98.25
2739.00,98.25
2738.00,98.25
2737.00,98.26
2736.00,98.27
2735.00,98.27
2734.00,98.28
2733.00,98.29
2732.00,98.29
2731.00,98.30
2730.00,98.30
2729.00,98.30
2728.00,98.31
2727.00,98.31
2726.00,98.31
2725.00,98.32
2724.00,98.33
2723.00,98.33
2722.00,98.34
2721.00,98.35
2720.00,98.35
2719.00,98.36
2718.00,98.36
2717.00,98.37
2716.00,98.37
2715.00,98.37
2714.00,98.37
2713.00,98.38
2712.00,98.38
2711.00,98.38
2710.00,98.38
2709.00,98.38
2708.00,98.38
2707.00,98.39
2706.00,98.39
2705.00,98.39
2704.00,98.39
2703.00,98.40
2702.00,98.40
2701.00,98.40
2700.00,98.40
2699.00,98.41
2698.00,98.41
2697.00,98.42
2696.00,98.42
2695.00,98.42
2694.00,98.42
2693.00,98.42
2692.00,98.42
2691.00,98.43
2690.00,98.43
2689.00,98.42
2688.00,98.42
2687.00,98.42
2686.00,98.42
2685.00,98.43
2684.00,98.43
2683.00,98.43
2682.00,98.44
2681.00,98.44
2680.00,98.43
2679.00,98.43
2678.00,98.43
2677.00,98.43
2676.00,98.42
2675.00,98.42
2674.00,98.41
2673.00,98.41
2672.00,98.41
2671.00,98.41
2670.00,98.40
2669.00,98.40
2668.00,98.40
2667.00,98.39
2666.00,98.38
2665.00,98.37
2664.00,98.36
2663.00,98.36
2662.00,98.36
2661.00,98.35
2660.00,98.35
2659.00,98.35
2658.00,98.35
2657.00,98.35
2656.00,98.35
2655.00,98.35
2654.00,98.35
2653.00,98.35
2652.00,98.35
2651.00,98.35
2650.00,98.36
2649.00,98.36
2648.00,98.36
2647.00,98.37
2646.00,98.37
2645.00,98.37
2644.00,98.37
2643.00,98.37
2642.00,98.37
2641.00,98.37
2640.00,98.37
2639.00,98.37
2638.00,98.37
2637.00,98.37
2636.00,98.37
2635.00,98.38
2634.00,98.38
2633.00,98.38
2632.00,98.39
2631.00,98.39
2630.00,98.40
2629.00,98.41
2628.00,98.42
2627.00,98.42
2626.00,98.43
2625.00,98.43
2624.00,98.44
2623.00,98.45
2622.00,98.45
2621.00,98.46
2620.00,98.46
2619.00,98.47
2618.00,98.48
2617.00,98.49
2616.00,98.49
2615.00,98.50
2614.00,98.49
2613.00,98.50
2612.00,98.50
2611.00,98.50
2610.00,98.51
2609.00,98.52
2608.00,98.53
2607.00,98.53
2606.00,98.54
2605.00,98.54
2604.00,98.54
2603.00,98.55
2602.00,98.55
2601.00,98.55
2600.00,98.56
2599.00,98.56
2598.00,98.56
2597.00,98.56
2596.00,98.57
2595.00,98.57
2594.00,98.58
2593.00,98.58
2592.00,98.58
2591.00,98.58
2590.00,98.58
2589.00,98.58
2588.00,98.59
2587.00,98.59
2586.00,98.60
2585.00,98.60
2584.00,98.59
2583.00,98.60
2582.00,98.60
2581.00,98.61
2580.00,98.62
2579.00,98.62
2578.00,98.63
2577.00,98.63
2576.00,98.63
2575.00,98.63
2574.00,98.64
2573.00,98.64
2572.00,98.65
2571.00,98.65
2570.00,98.65
2569.00,98.65
2568.00,98.64
2567.00,98.63
2566.00,98.63
2565.00,98.64
2564.00,98.64
2563.00,98.64
2562.00,98.64
2561.00,98.65
2560.00,98.65
2559.00,98.66
2558.00,98.67
2557.00,98.68
2556.00,98.69
2555.00,98.69
2554.00,98.68
2553.00,98.68
2552.00,98.69
2551.00,98.69
2550.00,98.69
2549.00,98.69
2548.00,98.68
2547.00,98.68
2546.00,98.68
2545.00,98.69
2544.00,98.70
2543.00,98.70
2542.00,98.70
2541.00,98.70
2540.00,98.69
2539.00,98.69
2538.00,98.69
2537.00,98.69
2536.00,98.70
2535.00,98.71
2534.00,98.71
2533.00,98.71
2532.00,98.70
2531.00,98.70
2530.00,98.70
2529.00,98.70
2528.00,98.69
2527.00,98.69
2526.00,98.69
2525.00,98.70
2524.00,98.70
2523.00,98.70
2522.00,98.70
2521.00,98.71
2520.00,98.71
2519.00,98.72
2518.00,98.72
2517.00,98.71
2516.00,98.71
2515.00,98.71
2514.00,98.72
2513.00,98.73
2512.00,98.74
2511.00,98.74
2510.00,98.75
2509.00,98.75
2508.00,98.75
2507.00,98.75
2506.00,98.75
2505.00,98.75
2504.00,98.75
2503.00,98.75
2502.00,98.74
2501.00,98.74
2500.00,98.75
2499.00,98.75
2498.00,98.75
2497.00,98.74
2496.00,98.73
2495.00,98.72
2494.00,98.72
2493.00,98.73
2492.00,98.74
2491.00,98.74
2490.00,98.75
2489.00,98.75
2488.00,98.75
2487.00,98.75
2486.00,98.75
2485.00,98.75
2484.00,98.75
2483.00,98.75
2482.00,98.75
2481.00,98.75
2480.00,98.75
2479.00,98.75
2478.00,98.76
2477.00,98.76
2476.00,98.76
2475.00,98.75
2474.00,98.75
2473.00,98.75
2472.00,98.76
2471.00,98.76
2470.00,98.76
2469.00,98.76
2468.00,98.77
2467.00,98.77
2466.00,98.77
2465.00,98.78
2464.00,98.78
2463.00,98.78
2462.00,98.78
2461.00,98.78
2460.00,98.77
2459.00,98.77
2458.00,98.77
2457.00,98.76
2456.00,98.76
2455.00,98.75
2454.00,98.75
2453.00,98.76
2452.00,98.77
2451.00,98.77
2450.00,98.77
2449.00,98.77
2448.00,98.76
2447.00,98.77
2446.00,98.77
2445.00,98.78
2444.00,98.79
2443.00,98.80
2442.00,98.80
2441.00,98.81
2440.00,98.81
2439.00,98.81
2438.00,98.81
2437.00,98.80
2436.00,98.79
2435.00,98.79
2434.00,98.79
2433.00,98.79
2432.00,98.80
2431.00,98.79
2430.00,98.78
2429.00,98.78
2428.00,98.78
2427.00,98.79
2426.00,98.80
2425.00,98.80
2424.00,98.80
2423.00,98.79
2422.00,98.79
2421.00,98.79
2420.00,98.79
2419.00,98.79
2418.00,98.80
2417.00,98.80
2416.00,98.80
2415.00,98.80
2414.00,98.80
2413.00,98.79
2412.00,98.79
2411.00,98.78
2410.00,98.79
2409.00,98.79
2408.00,98.79
2407.00,98.80
2406.00,98.81
2405.00,98.81
2404.00,98.82
2403.00,98.82
2402.00,98.83
2401.00,98.83
2400.00,98.83
2399.00,98.83
2398.00,98.83
2397.00,98.83
2396.00,98.83
2395.00,98.83
2394.00,98.83
2393.00,98.83
2392.00,98.83
2391.00,98.82
2390.00,98.81
2389.00,98.81
2388.00,98.81
2387.00,98.82
2386.00,98.83
2385.00,98.83
2384.00,98.83
2383.00,98.83
2382.00,98.83
2381.00,98.83
2380.00,98.82
2379.00,98.82
2378.00,98.82
2377.00,98.84
2376.00,98.85
2375.00,98.87
2374.00,98.87
2373.00,98.86
2372.00,98.85
2371.00,98.84
2370.00,98.82
2369.00,98.81
2368.00,98.80
2367.00,98.79
2366.00,98.78
2365.00,98.79
2364.00,98.80
2363.00,98.80
2362.00,98.81
2361.00,98.80
2360.00,98.79
2359.00,98.78
2358.00,98.77
2357.00,98.76
2356.00,98.76
2355.00,98.76
2354.00,98.77
2353.00,98.76
2352.00,98.76
2351.00,98.76
2350.00,98.75
2349.00,98.74
2348.00,98.71
2347.00,98.69
2346.00,98.69
2345.00,98.70
2344.00,98.72
2343.00,98.72
2342.00,98.71
2341.00,98.70
2340.00,98.70
2339.00,98.70
2338.00,98.71
2337.00,98.72
2336.00,98.72
2335.00,98.72
2334.00,98.71
2333.00,98.71
2332.00,98.70
2331.00,98.70
2330.00,98.70
2329.00,98.70
2328.00,98.69
2327.00,98.67
2326.00,98.64
2325.00,98.60
2324.00,98.58
2323.00,98.57
2322.00,98.59
2321.00,98.61
2320.00,98.63
2319.00,98.65
2318.00,98.68
2317.00,98.70
2316.00,98.71
2315.00,98.71
2314.00,98.72
2313.00,98.73
2312.00,98.74
2311.00,98.74
2310.00,98.74
2309.00,98.73
2308.00,98.72
2307.00,98.72
2306.00,98.71
2305.00,98.71
2304.00,98.71
2303.00,98.72
2302.00,98.73
2301.00,98.74
2300.00,98.75
2299.00,98.75
2298.00,98.75
2297.00,98.74
2296.00,98.73
2295.00,98.72
2294.00,98.70
2293.00,98.69
2292.00,98.69
2291.00,98.68
2290.00,98.68
2289.00,98.68
2288.00,98.67
2287.00,98.66
2286.00,98.65
2285.00,98.66
2284.00,98.67
2283.00,98.69
2282.00,98.70
2281.00,98.71
2280.00,98.72
2279.00,98.73
2278.00,98.73
2277.00,98.74
2276.00,98.74
2275.00,98.75
2274.00,98.75
2273.00,98.75
2272.00,98.75
2271.00,98.75
2270.00,98.75
2269.00,98.75
2268.00,98.76
2267.00,98.78
2266.00,98.80
2265.00,98.82
2264.00,98.83
2263.00,98.83
2262.00,98.82
2261.00,98.81
2260.00,98.80
2259.00,98.78
2258.00,98.77
2257.00,98.76
2256.00,98.76
2255.00,98.76
2254.00,98.76
2253.00,98.77
2252.00,98.78
2251.00,98.80
2250.00,98.81
2249.00,98.81
2248.00,98.80
2247.00,98.79
2246.00,98.79
2245.00,98.80
2244.00,98.81
2243.00,98.81
2242.00,98.82
2241.00,98.81
2240.00,98.81
2239.00,98.80
2238.00,98.80
2237.00,98.80
2236.00,98.80
2235.00,98.80
2234.00,98.81
2233.00,98.81
2232.00,98.82
2231.00,98.84
2230.00,98.86
2229.00,98.86
2228.00,98.85
2227.00,98.84
2226.00,98.83
2225.00,98.82
2224.00,98.81
2223.00,98.81
2222.00,98.83
2221.00,98.85
2220.00,98.86
2219.00,98.87
2218.00,98.86
2217.00,98.85
2216.00,98.83
2215.00,98.82
2214.00,98.82
2213.00,98.84
2212.00,98.85
2211.00,98.85
2210.00,98.83
2209.00,98.81
2208.00,98.81
2207.00,98.82
2206.00,98.83
2205.00,98.82
2204.00,98.81
2203.00,98.80
2202.00,98.80
2201.00,98.82
2200.00,98.84
2199.00,98.87
2198.00,98.88
2197.00,98.87
2196.00,98.86
2195.00,98.86
2194.00,98.87
2193.00,98.88
2192.00,98.88
2191.00,98.87
2190.00,98.85
2189.00,98.83
2188.00,98.81
2187.00,98.80
2186.00,98.79
2185.00,98.79
2184.00,98.79
2183.00,98.82
2182.00,98.85
2181.00,98.87
2180.00,98.87
2179.00,98.84
2178.00,98.83
2177.00,98.83
2176.00,98.86
2175.00,98.87
2174.00,98.88
2173.00,98.88
2172.00,98.87
2171.00,98.86
2170.00,98.83
2169.00,98.79
2168.00,98.75
2167.00,98.73
2166.00,98.74
2165.00,98.75
2164.00,98.76
2163.00,98.76
2162.00,98.75
2161.00,98.77
2160.00,98.82
2159.00,98.90
2158.00,98.99
2157.00,99.05
2156.00,99.08
2155.00,99.09
2154.00,99.09
2153.00,99.07
2152.00,99.05
2151.00,99.05
2150.00,99.05
2149.00,99.05
2148.00,99.03
2147.00,99.01
2146.00,99.01
2145.00,99.02
2144.00,99.02
2143.00,99.03
2142.00,99.03
2141.00,99.03
2140.00,99.02
2139.00,99.01
2138.00,98.99
2137.00,98.99
2136.00,98.99
2135.00,99.01
2134.00,99.03
2133.00,99.04
2132.00,99.03
2131.00,99.00
2130.00,98.98
2129.00,98.97
2128.00,98.96
2127.00,98.96
2126.00,98.95
2125.00,98.93
2124.00,98.90
2123.00,98.89
2122.00,98.88
2121.00,98.88
2120.00,98.88
2119.00,98.87
2118.00,98.87
2117.00,98.86
2116.00,98.85
2115.00,98.86
2114.00,98.87
2113.00,98.86
2112.00,98.85
2111.00,98.82
2110.00,98.81
2109.00,98.82
2108.00,98.84
2107.00,98.86
2106.00,98.86
2105.00,98.85
2104.00,98.83
2103.00,98.82
2102.00,98.82
2101.00,98.82
2100.00,98.82
2099.00,98.82
2098.00,98.82
2097.00,98.82
2096.00,98.84
2095.00,98.87
2094.00,98.90
2093.00,98.91
2092.00,98.91
2091.00,98.90
2090.00,98.89
2089.00,98.87
2088.00,98.86
2087.00,98.85
2086.00,98.84
2085.00,98.84
2084.00,98.83
2083.00,98.82
2082.00,98.82
2081.00,98.82
2080.00,98.82
2079.00,98.81
2078.00,98.81
2077.00,98.81
2076.00,98.83
2075.00,98.85
2074.00,98.87
2073.00,98.86
2072.00,98.85
2071.00,98.85
2070.00,98.86
2069.00,98.87
2068.00,98.87
2067.00,98.86
2066.00,98.85
2065.00,98.84
2064.00,98.84
2063.00,98.83
2062.00,98.82
2061.00,98.81
2060.00,98.80
2059.00,98.81
2058.00,98.82
2057.00,98.84
2056.00,98.85
2055.00,98.85
2054.00,98.84
2053.00,98.79
2052.00,98.72
2051.00,98.66
2050.00,98.65
2049.00,98.68
2048.00,98.72
2047.00,98.75
2046.00,98.76
2045.00,98.77
2044.00,98.78
2043.00,98.78
2042.00,98.77
2041.00,98.75
2040.00,98.73
2039.00,98.71
2038.00,98.71
2037.00,98.71
2036.00,98.71
2035.00,98.71
2034.00,98.74
2033.00,98.78
2032.00,98.84
2031.00,98.88
2030.00,98.89
2029.00,98.88
2028.00,98.86
2027.00,98.85
2026.00,98.84
2025.00,98.82
2024.00,98.80
2023.00,98.79
2022.00,98.79
2021.00,98.79
2020.00,98.81
2019.00,98.83
2018.00,98.85
2017.00,98.86
2016.00,98.87
2015.00,98.88
2014.00,98.88
2013.00,98.87
2012.00,98.85
2011.00,98.85
2010.00,98.86
2009.00,98.90
2008.00,98.94
2007.00,98.98
2006.00,98.99
2005.00,98.97
2004.00,98.92
2003.00,98.87
2002.00,98.85
2001.00,98.86
2000.00,98.87
1999.00,98.89
1998.00,98.91
1997.00,98.90
1996.00,98.88
1995.00,98.85
1994.00,98.83
1993.00,98.82
1992.00,98.84
1991.00,98.86
1990.00,98.87
1989.00,98.87
1988.00,98.88
1987.00,98.88
1986.00,98.87
1985.00,98.84
1984.00,98.80
1983.00,98.76
1982.00,98.75
1981.00,98.74
1980.00,98.76
1979.00,98.79
1978.00,98.84
1977.00,98.86
1976.00,98.86
1975.00,98.87
1974.00,98.89
1973.00,98.93
1972.00,98.96
1971.00,98.98
1970.00,98.99
1969.00,99.00
1968.00,98.99
1967.00,98.97
1966.00,98.94
1965.00,98.92
1964.00,98.91
1963.00,98.94
1962.00,99.00
1961.00,99.05
1960.00,99.07
1959.00,99.06
1958.00,99.04
1957.00,99.01
1956.00,98.99
1955.00,98.96
1954.00,98.95
1953.00,98.95
1952.00,98.94
1951.00,98.94
1950.00,98.94
1949.00,98.94
1948.00,98.94
1947.00,98.94
1946.00,98.93
1945.00,98.93
1944.00,98.92
1943.00,98.91
1942.00,98.89
1941.00,98.88
1940.00,98.88
1939.00,98.87
1938.00,98.87
1937.00,98.86
1936.00,98.85
1935.00,98.85
1934.00,98.85
1933.00,98.85
1932.00,98.85
1931.00,98.85
1930.00,98.85
1929.00,98.85
1928.00,98.85
1927.00,98.85
1926.00,98.84
1925.00,98.84
1924.00,98.84
1923.00,98.83
1922.00,98.82
1921.00,98.81
1920.00,98.82
1919.00,98.83
1918.00,98.85
1917.00,98.86
1916.00,98.86
1915.00,98.85
1914.00,98.84
1913.00,98.82
1912.00,98.82
1911.00,98.81
1910.00,98.81
1909.00,98.80
1908.00,98.80
1907.00,98.79
1906.00,98.80
1905.00,98.80
1904.00,98.81
1903.00,98.81
1902.00,98.80
1901.00,98.80
1900.00,98.80
1899.00,98.79
1898.00,98.79
1897.00,98.77
1896.00,98.76
1895.00,98.74
1894.00,98.74
1893.00,98.75
1892.00,98.76
1891.00,98.78
1890.00,98.81
1889.00,98.84
1888.00,98.84
1887.00,98.83
1886.00,98.82
1885.00,98.81
1884.00,98.80
1883.00,98.79
1882.00,98.78
1881.00,98.78
1880.00,98.78
1879.00,98.79
1878.00,98.78
1877.00,98.78
1876.00,98.77
1875.00,98.78
1874.00,98.78
1873.00,98.80
1872.00,98.80
1871.00,98.81
1870.00,98.82
1869.00,98.81
1868.00,98.80
1867.00,98.79
1866.00,98.78
1865.00,98.77
1864.00,98.77
1863.00,98.78
1862.00,98.78
1861.00,98.79
1860.00,98.80
1859.00,98.80
1858.00,98.81
1857.00,98.80
1856.00,98.79
1855.00,98.78
1854.00,98.77
1853.00,98.76
1852.00,98.76
1851.00,98.77
1850.00,98.78
1849.00,98.79
1848.00,98.79
1847.00,98.79
1846.00,98.78
1845.00,98.79
1844.00,98.79
1843.00,98.79
1842.00,98.79
1841.00,98.78
1840.00,98.77
1839.00,98.77
1838.00,98.77
1837.00,98.76
1836.00,98.76
1835.00,98.76
1834.00,98.76
1833.00,98.76
1832.00,98.76
1831.00,98.75
1830.00,98.75
1829.00,98.74
1828.00,98.75
1827.00,98.75
1826.00,98.75
1825.00,98.75
1824.00,98.75
1823.00,98.74
1822.00,98.73
1821.00,98.73
1820.00,98.73
1819.00,98.74
1818.00,98.74
1817.00,98.73
1816.00,98.73
1815.00,98.73
1814.00,98.73
1813.00,98.73
1812.00,98.72
1811.00,98.71
1810.00,98.71
1809.00,98.71
1808.00,98.71
1807.00,98.70
1806.00,98.70
1805.00,98.69
1804.00,98.68
1803.00,98.68
1802.00,98.68
1801.00,98.67
1800.00,98.66
1799.00,98.64
1798.00,98.64
1797.00,98.64
1796.00,98.64
1795.00,98.64
1794.00,98.64
1793.00,98.63
1792.00,98.62
1791.00,98.61
1790.00,98.61
1789.00,98.60
1788.00,98.60
1787.00,98.60
1786.00,98.60
1785.00,98.60
1784.00,98.59
1783.00,98.58
1782.00,98.58
1781.00,98.57
1780.00,98.56
1779.00,98.55
1778.00,98.55
1777.00,98.55
1776.00,98.54
1775.00,98.54
1774.00,98.53
1773.00,98.51
1772.00,98.50
1771.00,98.49
1770.00,98.48
1769.00,98.48
1768.00,98.47
1767.00,98.47
1766.00,98.46
1765.00,98.45
1764.00,98.45
1763.00,98.44
1762.00,98.44
1761.00,98.43
1760.00,98.43
1759.00,98.42
1758.00,98.41
1757.00,98.39
1756.00,98.38
1755.00,98.36
1754.00,98.35
1753.00,98.33
1752.00,98.31
1751.00,98.27
1750.00,98.23
1749.00,98.18
1748.00,98.13
1747.00,98.09
1746.00,98.05
1745.00,98.01
1744.00,97.96
1743.00,97.91
1742.00,97.86
1741.00,97.82
1740.00,97.77
1739.00,97.74
1738.00,97.72
1737.00,97.71
1736.00,97.71
1735.00,97.71
1734.00,97.69
1733.00,97.66
1732.00,97.63
1731.00,97.60
1730.00,97.59
1729.00,97.58
1728.00,97.57
1727.00,97.56
1726.00,97.53
1725.00,97.49
1724.00,97.44
1723.00,97.37
1722.00,97.30
1721.00,97.24
1720.00,97.18
1719.00,97.12
1718.00,97.04
1717.00,96.94
1716.00,96.87
1715.00,96.81
1714.00,96.80
1713.00,96.81
1712.00,96.85
1711.00,96.91
1710.00,96.98
1709.00,97.05
1708.00,97.11
1707.00,97.18
1706.00,97.24
1705.00,97.30
1704.00,97.35
1703.00,97.39
1702.00,97.41
1701.00,97.40
1700.00,97.39
1699.00,97.40
1698.00,97.42
1697.00,97.47
1696.00,97.54
1695.00,97.61
1694.00,97.68
1693.00,97.73
1692.00,97.78
1691.00,97.82
1690.00,97.86
1689.00,97.90
1688.00,97.93
1687.00,97.95
1686.00,97.97
1685.00,97.98
1684.00,97.99
1683.00,97.99
1682.00,97.99
1681.00,98.00
1680.00,98.00
1679.00,98.00
1678.00,98.01
1677.00,98.01
1676.00,98.00
1675.00,98.00
1674.00,98.00
1673.00,98.01
1672.00,98.00
1671.00,98.00
1670.00,98.00
1669.00,98.00
1668.00,98.00
1667.00,98.00
1666.00,98.00
1665.00,97.99
1664.00,97.99
1663.00,97.98
1662.00,97.98
1661.00,97.98
1660.00,97.98
1659.00,97.97
1658.00,97.97
1657.00,97.97
1656.00,97.97
1655.00,97.98
1654.00,97.97
1653.00,97.98
1652.00,97.99
1651.00,98.00
1650.00,98.00
1649.00,98.00
1648.00,98.01
1647.00,98.02
1646.00,98.03
1645.00,98.04
1644.00,98.05
1643.00,98.06
1642.00,98.07
1641.00,98.08
1640.00,98.08
1639.00,98.09
1638.00,98.09
1637.00,98.09
1636.00,98.10
1635.00,98.11
1634.00,98.12
1633.00,98.14
1632.00,98.15
1631.00,98.16
1630.00,98.17
1629.00,98.18
1628.00,98.19
1627.00,98.19
1626.00,98.20
1625.00,98.21
1624.00,98.23
1623.00,98.24
1622.00,98.26
1621.00,98.28
1620.00,98.29
1619.00,98.30
1618.00,98.31
1617.00,98.32
1616.00,98.33
1615.00,98.35
1614.00,98.36
1613.00,98.36
1612.00,98.37
1611.00,98.38
1610.00,98.38
1609.00,98.38
1608.00,98.38
1607.00,98.39
1606.00,98.39
1605.00,98.40
1604.00,98.41
1603.00,98.42
1602.00,98.43
1601.00,98.43
1600.00,98.44
1599.00,98.45
1598.00,98.46
1597.00,98.48
1596.00,98.49
1595.00,98.50
1594.00,98.51
1593.00,98.52
1592.00,98.53
1591.00,98.54
1590.00,98.56
1589.00,98.58
1588.00,98.60
1587.00,98.63
1586.00,98.66
1585.00,98.70
1584.00,98.74
1583.00,98.79
1582.00,98.84
1581.00,98.90
1580.00,98.96
1579.00,99.01
1578.00,99.05
1577.00,99.08
1576.00,99.08
1575.00,99.07
1574.00,99.05
1573.00,99.01
1572.00,98.97
1571.00,98.91
1570.00,98.85
1569.00,98.79
1568.00,98.75
1567.00,98.71
1566.00,98.69
1565.00,98.66
1564.00,98.63
1563.00,98.62
1562.00,98.62
1561.00,98.61
1560.00,98.59
1559.00,98.56
1558.00,98.55
1557.00,98.55
1556.00,98.54
1555.00,98.53
1554.00,98.53
1553.00,98.54
1552.00,98.55
1551.00,98.56
1550.00,98.59
1549.00,98.61
1548.00,98.64
1547.00,98.68
1546.00,98.73
1545.00,98.80
1544.00,98.86
1543.00,98.93
1542.00,98.99
1541.00,99.04
1540.00,99.06
1539.00,99.05
1538.00,99.01
1537.00,98.95
1536.00,98.88
1535.00,98.80
1534.00,98.70
1533.00,98.61
1532.00,98.54
1531.00,98.50
1530.00,98.46
1529.00,98.43
1528.00,98.39
1527.00,98.36
1526.00,98.34
1525.00,98.32
1524.00,98.31
1523.00,98.31
1522.00,98.30
1521.00,98.29
1520.00,98.27
1519.00,98.26
1518.00,98.27
1517.00,98.27
1516.00,98.26
1515.00,98.26
1514.00,98.26
1513.00,98.26
1512.00,98.25
1511.00,98.25
1510.00,98.25
1509.00,98.25
1508.00,98.24
1507.00,98.22
1506.00,98.22
1505.00,98.24
1504.00,98.24
1503.00,98.23
1502.00,98.23
1501.00,98.23
1500.00,98.22
1499.00,98.22
1498.00,98.23
1497.00,98.23
1496.00,98.22
1495.00,98.21
1494.00,98.21
1493.00,98.21
1492.00,98.20
1491.00,98.20
1490.00,98.20
1489.00,98.19
1488.00,98.18
1487.00,98.18
1486.00,98.18
1485.00,98.17
1484.00,98.15
1483.00,98.13
1482.00,98.10
1481.00,98.04
1480.00,97.93
1479.00,97.77
1478.00,97.45
1477.00,96.80
1476.00,95.72
1475.00,94.28
1474.00,92.83
1473.00,91.95
1472.00,92.08
1471.00,92.88
1470.00,93.67
1469.00,94.17
1468.00,94.38
1467.00,94.33
1466.00,93.88
1465.00,92.87
1464.00,91.61
1463.00,90.70
1462.00,90.55
1461.00,91.14
1460.00,92.22
1459.00,93.48
1458.00,94.61
1457.00,95.42
1456.00,95.90
1455.00,96.16
1454.00,96.35
1453.00,96.51
1452.00,96.67
1451.00,96.80
1450.00,96.89
1449.00,96.97
1448.00,97.03
1447.00,97.07
1446.00,97.10
1445.00,97.13
1444.00,97.16
1443.00,97.19
1442.00,97.21
1441.00,97.23
1440.00,97.27
1439.00,97.31
1438.00,97.34
1437.00,97.37
1436.00,97.40
1435.00,97.43
1434.00,97.46
1433.00,97.48
1432.00,97.51
1431.00,97.54
1430.00,97.56
1429.00,97.59
1428.00,97.62
1427.00,97.65
1426.00,97.67
1425.00,97.70
1424.00,97.72
1423.00,97.73
1422.00,97.73
1421.00,97.74
1420.00,97.75
1419.00,97.75
1418.00,97.74
1417.00,97.74
1416.00,97.74
1415.00,97.74
1414.00,97.73
1413.00,97.72
1412.00,97.71
1411.00,97.70
1410.00,97.69
1409.00,97.68
1408.00,97.69
1407.00,97.69
1406.00,97.70
1405.00,97.71
1404.00,97.73
1403.00,97.75
1402.00,97.78
1401.00,97.80
1400.00,97.82
1399.00,97.84
1398.00,97.86
1397.00,97.87
1396.00,97.88
1395.00,97.89
1394.00,97.91
1393.00,97.92
1392.00,97.95
1391.00,97.97
1390.00,97.99
1389.00,98.00
1388.00,98.01
1387.00,98.02
1386.00,98.03
1385.00,98.04
1384.00,98.06
1383.00,98.08
1382.00,98.09
1381.00,98.10
1380.00,98.10
1379.00,98.10
1378.00,98.10
1377.00,98.09
1376.00,98.07
1375.00,98.05
1374.00,98.02
1373.00,97.99
1372.00,97.96
1371.00,97.93
1370.00,97.91
1369.00,97.89
1368.00,97.87
1367.00,97.87
1366.00,97.87
1365.00,97.88
1364.00,97.89
1363.00,97.91
1362.00,97.92
1361.00,97.94
1360.00,97.94
1359.00,97.94
1358.00,97.94
1357.00,97.94
1356.00,97.93
1355.00,97.92
1354.00,97.91
1353.00,97.90
1352.00,97.89
1351.00,97.88
1350.00,97.88
1349.00,97.87
1348.00,97.87
1347.00,97.87
1346.00,97.87
1345.00,97.87
1344.00,97.86
1343.00,97.86
1342.00,97.86
1341.00,97.87
1340.00,97.87
1339.00,97.88
1338.00,97.88
1337.00,97.88
1336.00,97.88
1335.00,97.87
1334.00,97.86
1333.00,97.86
1332.00,97.85
1331.00,97.85
1330.00,97.84
1329.00,97.83
1328.00,97.82
1327.00,97.81
1326.00,97.79
1325.00,97.78
1324.00,97.77
1323.00,97.76
1322.00,97.75
1321.00,97.74
1320.00,97.73
1319.00,97.72
1318.00,97.71
1317.00,97.70
1316.00,97.68
1315.00,97.67
1314.00,97.65
1313.00,97.63
1312.00,97.62
1311.00,97.60
1310.00,97.59
1309.00,97.58
1308.00,97.58
1307.00,97.58
1306.00,97.57
1305.00,97.56
1304.00,97.55
1303.00,97.55
1302.00,97.54
1301.00,97.53
1300.00,97.52
1299.00,97.51
1298.00,97.50
1297.00,97.49
1296.00,97.49
1295.00,97.48
1294.00,97.48
1293.00,97.48
1292.00,97.48
1291.00,97.47
1290.00,97.47
1289.00,97.47
1288.00,97.48
1287.00,97.48
1286.00,97.49
1285.00,97.49
1284.00,97.50
1283.00,97.50
1282.00,97.51
1281.00,97.51
1280.00,97.51
1279.00,97.51
1278.00,97.50
1277.00,97.50
1276.00,97.49
1275.00,97.49
1274.00,97.48
1273.00,97.48
1272.00,97.47
1271.00,97.45
1270.00,97.43
1269.00,97.41
1268.00,97.37
1267.00,97.34
1266.00,97.31
1265.00,97.29
1264.00,97.28
1263.00,97.28
1262.00,97.28
1261.00,97.29
1260.00,97.30
1259.00,97.32
1258.00,97.34
1257.00,97.36
1256.00,97.39
1255.00,97.41
1254.00,97.43
1253.00,97.44
1252.00,97.46
1251.00,97.47
1250.00,97.47
1249.00,97.48
1248.00,97.48
1247.00,97.48
1246.00,97.48
1245.00,97.48
1244.00,97.48
1243.00,97.49
1242.00,97.49
1241.00,97.50
1240.00,97.51
1239.00,97.52
1238.00,97.52
1237.00,97.52
1236.00,97.52
1235.00,97.52
1234.00,97.52
1233.00,97.52
1232.00,97.52
1231.00,97.53
1230.00,97.52
1229.00,97.52
1228.00,97.51
1227.00,97.51
1226.00,97.50
1225.00,97.49
1224.00,97.48
1223.00,97.48
1222.00,97.47
1221.00,97.47
1220.00,97.47
1219.00,97.48
1218.00,97.49
1217.00,97.50
1216.00,97.50
1215.00,97.50
1214.00,97.50
1213.00,97.50
1212.00,97.51
1211.00,97.52
1210.00,97.52
1209.00,97.51
1208.00,97.50
1207.00,97.48
1206.00,97.46
1205.00,97.45
1204.00,97.44
1203.00,97.42
1202.00,97.41
1201.00,97.40
1200.00,97.39
1199.00,97.39
1198.00,97.39
1197.00,97.39
1196.00,97.40
1195.00,97.41
1194.00,97.42
1193.00,97.42
1192.00,97.43
1191.00,97.44
1190.00,97.44
1189.00,97.44
1188.00,97.42
1187.00,97.40
1186.00,97.38
1185.00,97.35
1184.00,97.34
1183.00,97.32
1182.00,97.31
1181.00,97.31
1180.00,97.31
1179.00,97.31
1178.00,97.30
1177.00,97.29
1176.00,97.29
1175.00,97.30
1174.00,97.31
1173.00,97.32
1172.00,97.32
1171.00,97.32
1170.00,97.32
1169.00,97.32
1168.00,97.32
1167.00,97.31
1166.00,97.30
1165.00,97.29
1164.00,97.28
1163.00,97.28
1162.00,97.28
1161.00,97.29
1160.00,97.29
1159.00,97.29
1158.00,97.28
1157.00,97.28
1156.00,97.28
1155.00,97.28
1154.00,97.29
1153.00,97.30
1152.00,97.31
1151.00,97.32
1150.00,97.32
1149.00,97.32
1148.00,97.33
1147.00,97.34
1146.00,97.34
1145.00,97.35
1144.00,97.36
1143.00,97.36
1142.00,97.36
1141.00,97.35
1140.00,97.34
1139.00,97.33
1138.00,97.33
1137.00,97.32
1136.00,97.32
1135.00,97.32
1134.00,97.32
1133.00,97.32
1132.00,97.32
1131.00,97.30
1130.00,97.28
1129.00,97.26
1128.00,97.25
1127.00,97.23
1126.00,97.23
1125.00,97.23
1124.00,97.22
1123.00,97.21
1122.00,97.19
1121.00,97.16
1120.00,97.15
1119.00,97.14
1118.00,97.15
1117.00,97.16
1116.00,97.17
1115.00,97.17
1114.00,97.17
1113.00,97.15
1112.00,97.12
1111.00,97.10
1110.00,97.09
1109.00,97.10
1108.00,97.11
1107.00,97.12
1106.00,97.11
1105.00,97.09
1104.00,97.06
1103.00,97.03
1102.00,97.03
1101.00,97.04
1100.00,97.05
1099.00,97.05
1098.00,97.04
1097.00,97.02
1096.00,97.02
1095.00,97.02
1094.00,97.03
1093.00,97.05
1092.00,97.06
1091.00,97.07
1090.00,97.07
1089.00,97.07
1088.00,97.07
1087.00,97.07
1086.00,97.08
1085.00,97.08
1084.00,97.09
1083.00,97.10
1082.00,97.11
1081.00,97.11
1080.00,97.11
1079.00,97.11
1078.00,97.10
1077.00,97.10
1076.00,97.09
1075.00,97.10
1074.00,97.10
1073.00,97.11
1072.00,97.12
1071.00,97.13
1070.00,97.14
1069.00,97.14
1068.00,97.14
1067.00,97.13
1066.00,97.13
1065.00,97.13
1064.00,97.14
1063.00,97.15
1062.00,97.16
1061.00,97.16
1060.00,97.17
1059.00,97.17
1058.00,97.17
1057.00,97.17
1056.00,97.17
1055.00,97.16
1054.00,97.16
1053.00,97.15
1052.00,97.14
1051.00,97.14
1050.00,97.13
1049.00,97.14
1048.00,97.15
1047.00,97.16
1046.00,97.17
1045.00,97.18
1044.00,97.18
1043.00,97.18
1042.00,97.18
1041.00,97.18
1040.00,97.19
1039.00,97.20
1038.00,97.20
1037.00,97.21
1036.00,97.21
1035.00,97.21
1034.00,97.21
1033.00,97.21
1032.00,97.22
1031.00,97.22
1030.00,97.22
1029.00,97.22
1028.00,97.21
1027.00,97.22
1026.00,97.22
1025.00,97.23
1024.00,97.23
1023.00,97.24
1022.00,97.24
1021.00,97.25
1020.00,97.24
1019.00,97.24
1018.00,97.24
1017.00,97.24
1016.00,97.25
1015.00,97.27
1014.00,97.29
1013.00,97.31
1012.00,97.32
1011.00,97.33
1010.00,97.33
1009.00,97.34
1008.00,97.36
1007.00,97.38
1006.00,97.39
1005.00,97.40
1004.00,97.41
1003.00,97.41
1002.00,97.42
1001.00,97.42
1000.00,97.43
999.00,97.44
998.00,97.45
997.00,97.45
996.00,97.46
995.00,97.45
994.00,97.45
993.00,97.45
992.00,97.45
991.00,97.46
990.00,97.47
989.00,97.49
988.00,97.50
987.00,97.51
986.00,97.50
985.00,97.50
984.00,97.49
983.00,97.49
982.00,97.50
981.00,97.52
980.00,97.54
979.00,97.55
978.00,97.55
977.00,97.55
976.00,97.55
975.00,97.55
974.00,97.55
973.00,97.54
972.00,97.53
971.00,97.53
970.00,97.52
969.00,97.52
968.00,97.52
967.00,97.52
966.00,97.53
965.00,97.55
964.00,97.56
963.00,97.56
962.00,97.56
961.00,97.55
960.00,97.55
959.00,97.54
958.00,97.54
957.00,97.54
956.00,97.54
955.00,97.54
954.00,97.55
953.00,97.55
952.00,97.55
951.00,97.55
950.00,97.55
949.00,97.55
948.00,97.54
947.00,97.53
946.00,97.51
945.00,97.51
944.00,97.50
943.00,97.51
942.00,97.51
941.00,97.50
940.00,97.49
939.00,97.49
938.00,97.49
937.00,97.49
936.00,97.50
935.00,97.52
934.00,97.53
933.00,97.53
932.00,97.53
931.00,97.52
930.00,97.52
929.00,97.52
928.00,97.52
927.00,97.52
926.00,97.52
925.00,97.52
924.00,97.53
923.00,97.54
922.00,97.55
921.00,97.56
920.00,97.56
919.00,97.56
918.00,97.54
917.00,97.54
916.00,97.54
915.00,97.54
914.00,97.54
913.00,97.54
912.00,97.53
911.00,97.52
910.00,97.50
909.00,97.50
908.00,97.50
907.00,97.52
906.00,97.53
905.00,97.54
904.00,97.54
903.00,97.54
902.00,97.54
901.00,97.54
900.00,97.55
899.00,97.55
898.00,97.55
897.00,97.55
896.00,97.54
895.00,97.54
894.00,97.54
893.00,97.53
892.00,97.53
891.00,97.53
890.00,97.54
889.00,97.54
888.00,97.53
887.00,97.53
886.00,97.53
885.00,97.53
884.00,97.53
883.00,97.53
882.00,97.53
881.00,97.53
880.00,97.53
879.00,97.53
878.00,97.53
877.00,97.53
876.00,97.52
875.00,97.52
874.00,97.52
873.00,97.52
872.00,97.52
871.00,97.52
870.00,97.52
869.00,97.53
868.00,97.54
867.00,97.55
866.00,97.55
865.00,97.54
864.00,97.52
863.00,97.51
862.00,97.50
861.00,97.50
860.00,97.51
859.00,97.52
858.00,97.52
857.00,97.52
856.00,97.52
855.00,97.52
854.00,97.52
853.00,97.52
852.00,97.53
851.00,97.54
850.00,97.54
849.00,97.54
848.00,97.55
847.00,97.55
846.00,97.55
845.00,97.55
844.00,97.56
843.00,97.56
842.00,97.56
841.00,97.56
840.00,97.55
839.00,97.55
838.00,97.55
837.00,97.54
836.00,97.53
835.00,97.53
834.00,97.52
833.00,97.52
832.00,97.51
831.00,97.50
830.00,97.49
829.00,97.49
828.00,97.49
827.00,97.48
826.00,97.46
825.00,97.44
824.00,97.41
823.00,97.39
822.00,97.38
821.00,97.37
820.00,97.36
819.00,97.36
818.00,97.34
817.00,97.33
816.00,97.32
815.00,97.31
814.00,97.31
813.00,97.30
812.00,97.29
811.00,97.28
810.00,97.27
809.00,97.27
808.00,97.27
807.00,97.27
806.00,97.26
805.00,97.25
804.00,97.24
803.00,97.24
802.00,97.24
801.00,97.24
800.00,97.24
799.00,97.23
798.00,97.23
797.00,97.24
796.00,97.26
795.00,97.28
794.00,97.30
793.00,97.31
792.00,97.33
791.00,97.35
790.00,97.36
789.00,97.37
788.00,97.38
787.00,97.38
786.00,97.39
785.00,97.38
784.00,97.38
783.00,97.38
782.00,97.39
781.00,97.40
780.00,97.40
779.00,97.41
778.00,97.40
777.00,97.40
776.00,97.40
775.00,97.41
774.00,97.42
773.00,97.41
772.00,97.41
771.00,97.41
770.00,97.42
769.00,97.43
768.00,97.44
767.00,97.46
766.00,97.46
765.00,97.46
764.00,97.44
763.00,97.42
762.00,97.41
761.00,97.40
760.00,97.39
759.00,97.39
758.00,97.38
757.00,97.37
756.00,97.36
755.00,97.36
754.00,97.36
753.00,97.34
752.00,97.33
751.00,97.32
750.00,97.31
749.00,97.31
748.00,97.30
747.00,97.29
746.00,97.28
745.00,97.25
744.00,97.22
743.00,97.20
742.00,97.17
741.00,97.12
740.00,97.05
739.00,96.96
738.00,96.84
737.00,96.63
736.00,96.30
735.00,95.69
734.00,94.62
733.00,93.00
732.00,91.14
731.00,89.69
730.00,89.23
729.00,89.86
728.00,91.11
727.00,92.34
726.00,93.13
725.00,93.39
724.00,93.14
723.00,92.29
722.00,90.77
721.00,88.81
720.00,87.10
719.00,86.42
718.00,87.05
717.00,88.59
716.00,90.37
715.00,91.89
714.00,93.02
713.00,93.84
712.00,94.44
711.00,94.88
710.00,95.22
709.00,95.49
708.00,95.72
707.00,95.90
706.00,96.04
705.00,96.17
704.00,96.28
703.00,96.37
702.00,96.45
701.00,96.54
700.00,96.62
699.00,96.68
698.00,96.72
697.00,96.75
696.00,96.79
695.00,96.81
694.00,96.84
693.00,96.87
692.00,96.91
691.00,96.93
690.00,96.94
689.00,96.94
688.00,96.95
687.00,96.95
686.00,96.94
685.00,96.94
684.00,96.95
683.00,96.95
682.00,96.95
681.00,96.95
680.00,96.95
679.00,96.96
678.00,96.97
677.00,96.99
676.00,97.01
675.00,97.02
674.00,97.03
673.00,97.06
672.00,97.10
671.00,97.14
670.00,97.20
669.00,97.29
668.00,97.37
667.00,97.36
666.00,97.29
665.00,97.21
664.00,97.14
663.00,97.10
662.00,97.09
661.00,97.09
660.00,97.10
659.00,97.11
658.00,97.11
657.00,97.12
656.00,97.12
655.00,97.13
654.00,97.13
653.00,97.12
652.00,97.11
651.00,97.10
650.00,97.11
649.00,97.13
648.00,97.14
647.00,97.15
646.00,97.15
645.00,97.14
644.00,97.13
643.00,97.12
642.00,97.12
641.00,97.12
640.00,97.12
639.00,97.11
638.00,97.11
637.00,97.12
636.00,97.13
635.00,97.14
634.00,97.14
633.00,97.13
632.00,97.11
631.00,97.09
630.00,97.08
629.00,97.08
628.00,97.08
627.00,97.08
626.00,97.07
625.00,97.05
624.00,97.04
623.00,97.05
622.00,97.06
621.00,97.07
620.00,97.06
619.00,97.03
618.00,97.01
617.00,97.01
616.00,97.02
615.00,97.05
614.00,97.08
613.00,97.11
612.00,97.13
611.00,97.14
610.00,97.15
609.00,97.15
608.00,97.14
607.00,97.12
606.00,97.11
605.00,97.11
604.00,97.12
603.00,97.12
602.00,97.12
601.00,97.12
600.00,97.13
599.00,97.15
598.00,97.16
597.00,97.15
596.00,97.12
595.00,97.09
594.00,97.07
593.00,97.08
592.00,97.10
591.00,97.11
590.00,97.12
589.00,97.11
588.00,97.10
587.00,97.09
586.00,97.08
585.00,97.08
584.00,97.09
583.00,97.10
582.00,97.11
581.00,97.12
580.00,97.11
579.00,97.09
578.00,97.08
577.00,97.07
576.00,97.07
575.00,97.08
574.00,97.09
573.00,97.09
572.00,97.10
571.00,97.11
570.00,97.13
569.00,97.14
568.00,97.14
567.00,97.14
566.00,97.12
565.00,97.11
564.00,97.10
563.00,97.10
562.00,97.11
561.00,97.12
560.00,97.13
559.00,97.13
558.00,97.12
557.00,97.10
556.00,97.10
555.00,97.10
554.00,97.12
553.00,97.13
552.00,97.14
551.00,97.15
550.00,97.14
549.00,97.12
548.00,97.09
547.00,97.05
546.00,97.03
545.00,97.04
544.00,97.06
543.00,97.08
542.00,97.08
541.00,97.07
540.00,97.05
539.00,97.04
538.00,97.04
537.00,97.04
536.00,97.04
535.00,97.05
534.00,97.07
533.00,97.08
532.00,97.09
531.00,97.09
530.00,97.10
529.00,97.11
528.00,97.09
527.00,97.05
526.00,97.00
525.00,96.98
524.00,97.00
523.00,97.05
522.00,97.09
521.00,97.10
520.00,97.09
519.00,97.07
518.00,97.06
517.00,97.05
516.00,97.03
515.00,97.01
514.00,97.01
513.00,97.03
512.00,97.05
511.00,97.06
510.00,97.06
509.00,97.08
508.00,97.10
507.00,97.09
506.00,97.05
505.00,97.03
504.00,97.02
503.00,97.03
502.00,97.03
501.00,97.03
500.00,97.01
499.00,96.99
498.00,96.98
497.00,96.97
496.00,96.97
495.00,96.97
494.00,96.99
493.00,97.02
492.00,97.04
491.00,97.03
490.00,97.03
489.00,97.03
488.00,97.04
487.00,97.05
486.00,97.06
485.00,97.08
484.00,97.12
483.00,97.13
482.00,97.12
481.00,97.11
480.00,97.11
479.00,97.11
478.00,97.08
477.00,97.06
476.00,97.06
475.00,97.09
474.00,97.11
473.00,97.12
472.00,97.10
471.00,97.06
470.00,97.03
469.00,97.01
468.00,97.02
467.00,97.03
466.00,97.04
465.00,97.02
464.00,96.97
463.00,96.90
462.00,96.84
461.00,96.81
460.00,96.83
459.00,96.91
458.00,97.01
457.00,97.06
456.00,97.03
455.00,96.96
454.00,96.91
453.00,96.92
452.00,96.98
451.00,97.06
450.00,97.10
449.00,97.10
448.00,97.05
447.00,96.98
446.00,96.91
445.00,96.90
444.00,96.97
443.00,97.05
442.00,97.10
441.00,97.12
440.00,97.13
439.00,97.14
438.00,97.15
437.00,97.17
436.00,97.21
435.00,97.25
434.00,97.25
433.00,97.21
432.00,97.15
431.00,97.09
430.00,97.07
429.00,97.08
428.00,97.10
427.00,97.11
426.00,97.08
425.00,97.05
424.00,97.08
423.00,97.16
422.00,97.21
421.00,97.20
420.00,97.14
419.00,97.07
418.00,96.99
417.00,96.88
416.00,96.77
415.00,96.71
414.00,96.75
413.00,96.85
412.00,96.99
411.00,97.17
410.00,97.35
409.00,97.45
408.00,97.38
407.00,97.15
406.00,96.88
405.00,96.73
404.00,96.72
403.00,96.73
402.00,96.64
401.00,96.41
400.00,96.10
