Created as New Dataset,Sample 710 By Administrator Date Monday, September 21 2026
cm-1,%T
4000.00,99.66
3999.00,99.66
3998.00,99.65
3997.00,99.64
3996.00,99.65
3995.00,99.65
3994.00,99.65
3993.00,99.65
3992.00,99.66
3991.00,99.66
3990.00,99.67
3989.00,99.67
3988.00,99.67
3987.00,99.67
3986.00,99.67
3985.00,99.66
3984.00,99.66
3983.00,99.66
3982.00,99.65
3981.00,99.65
3980.00,99.65
3979.00,99.65
3978.00,99.65
3977.00,99.65
3976.00,99.65
3975.00,99.66
3974.00,99.66
3973.00,99.66
3972.00,99.67
3971.00,99.67
3970.00,99.67
3969.00,99.67
3968.00,99.67
3967.00,99.66
3966.00,99.66
3965.00,99.65
3964.00,99.65
3963.00,99.64
3962.00,99.65
3961.00,99.65
3960.00,99.66
3959.00,99.66
3958.00,99.66
3957.00,99.66
3956.00,99.66
3955.00,99.66
3954.00,99.66
3953.00,99.66
3952.00,99.66
3951.00,99.66
3950.00,99.66
3949.00,99.65
3948.00,99.65
3947.00,99.65
3946.00,99.65
3945.00,99.65
3944.00,99.65
3943.00,99.66
3942.00,99.66
3941.00,99.66
3940.00,99.66
3939.00,99.66
3938.00,99.66
3937.00,99.66
3936.00,99.65
3935.00,99.65
3934.00,99.65
3933.00,99.65
3932.00,99.65
3931.00,99.65
3930.00,99.65
3929.00,99.65
3928.00,99.65
3927.00,99.66
3926.00,99.67
3925.00,99.67
3924.00,99.67
3923.00,99.67
3922.00,99.67
3921.00,99.66
3920.00,99.66
3919.00,99.65
3918.00,99.65
3917.00,99.65
3916.00,99.66
3915.00,99.66
3914.00,99.67
3913.00,99.67
3912.00,99.67
3911.00,99.67
3910.00,99.67
3909.00,99.66
3908.00,99.66
3907.00,99.66
3906.00,99.66
3905.00,99.66
3904.00,99.66
3903.00,99.65
3902.00,99.65
3901.00,99.66
3900.00,99.67
3899.00,99.67
3898.00,99.67
3897.00,99.67
3896.00,99.67
3895.00,99.67
3894.00,99.67
3893.00,99.68
3892.00,99.68
3891.00,99.67
3890.00,99.66
3889.00,99.66
3888.00,99.66
3887.00,99.65
3886.00,99.65
3885.00,99.64
3884.00,99.64
3883.00,99.65
3882.00,99.66
3881.00,99.66
3880.00,99.66
3879.00,99.65
3878.00,99.65
3877.00,99.65
3876.00,99.65
3875.00,99.65
3874.00,99.64
3873.00,99.63
3872.00,99.63
3871.00,99.63
3870.00,99.63
3869.00,99.64
3868.00,99.64
3867.00,99.65
3866.00,99.65
3865.00,99.65
3864.00,99.65
3863.00,99.64
3862.00,99.64
3861.00,99.63
3860.00,99.63
3859.00,99.63
3858.00,99.63
3857.00,99.63
3856.00,99.64
3855.00,99.65
3854.00,99.65
3853.00,99.66
3852.00,99.66
3851.00,99.67
3850.00,99.67
3849.00,99.67
3848.00,99.67
3847.00,99.67
3846.00,99.67
3845.00,99.67
3844.00,99.66
3843.00,99.66
3842.00,99.66
3841.00,99.66
3840.00,99.66
3839.00,99.66
3838.00,99.66
3837.00,99.66
3836.00,99.67
3835.00,99.67
3834.00,99.68
3833.00,99.68
3832.00,99.68
3831.00,99.68
3830.00,99.68
3829.00,99.68
3828.00,99.69
3827.00,99.68
3826.00,99.67
3825.00,99.66
3824.00,99.66
3823.00,99.66
3822.00,99.66
3821.00,99.66
3820.00,99.66
3819.00,99.66
3818.00,99.66
3817.00,99.66
3816.00,99.67
3815.00,99.68
3814.00,99.68
3813.00,99.69
3812.00,99.68
3811.00,99.68
3810.00,99.67
3809.00,99.67
3808.00,99.67
3807.00,99.68
3806.00,99.67
3805.00,99.67
3804.00,99.67
3803.00,99.67
3802.00,99.67
3801.00,99.67
3800.00,99.67
3799.00,99.67
3798.00,99.68
3797.00,99.69
3796.00,99.69
3795.00,99.69
3794.00,99.68
3793.00,99.68
3792.00,99.67
3791.00,99.66
3790.00,99.66
3789.00,99.65
3788.00,99.65
3787.00,99.66
3786.00,99.66
3785.00,99.66
3784.00,99.67
3783.00,99.67
3782.00,99.67
3781.00,99.68
3780.00,99.69
3779.00,99.69
3778.00,99.69
3777.00,99.68
3776.00,99.68
3775.00,99.67
3774.00,99.67
3773.00,99.67
3772.00,99.67
3771.00,99.66
3770.00,99.66
3769.00,99.66
3768.00,99.65
3767.00,99.65
3766.00,99.65
3765.00,99.65
3764.00,99.65
3763.00,99.65
3762.00,99.65
3761.00,99.66
3760.00,99.66
3759.00,99.66
3758.00,99.66
3757.00,99.65
3756.00,99.65
3755.00,99.64
3754.00,99.63
3753.00,99.63
3752.00,99.62
3751.00,99.61
3750.00,99.60
3749.00,99.59
3748.00,99.60
3747.00,99.61
3746.00,99.62
3745.00,99.63
3744.00,99.63
3743.00,99.63
3742.00,99.63
3741.00,99.63
3740.00,99.62
3739.00,99.61
3738.00,99.60
3737.00,99.60
3736.00,99.60
3735.00,99.62
3734.00,99.64
3733.00,99.66
3732.00,99.66
3731.00,99.66
3730.00,99.65
3729.00,99.64
3728.00,99.62
3727.00,99.61
3726.00,99.61
3725.00,99.61
3724.00,99.62
3723.00,99.63
3722.00,99.64
3721.00,99.65
3720.00,99.65
3719.00,99.65
3718.00,99.65
3717.00,99.65
3716.00,99.65
3715.00,99.65
3714.00,99.64
3713.00,99.63
3712.00,99.62
3711.00,99.61
3710.00,99.62
3709.00,99.64
3708.00,99.66
3707.00,99.68
3706.00,99.69
3705.00,99.69
3704.00,99.69
3703.00,99.70
3702.00,99.70
3701.00,99.69
3700.00,99.68
3699.00,99.67
3698.00,99.66
3697.00,99.66
3696.00,99.66
3695.00,99.66
3694.00,99.65
3693.00,99.66
3692.00,99.66
3691.00,99.67
3690.00,99.68
3689.00,99.68
3688.00,99.68
3687.00,99.67
3686.00,99.66
3685.00,99.65
3684.00,99.64
3683.00,99.63
3682.00,99.63
3681.00,99.62
3680.00,99.62
3679.00,99.61
3678.00,99.61
3677.00,99.61
3676.00,99.61
3675.00,99.61
3674.00,99.61
3673.00,99.62
3672.00,99.62
3671.00,99.63
3670.00,99.64
3669.00,99.64
3668.00,99.65
3667.00,99.65
3666.00,99.65
3665.00,99.65
3664.00,99.65
3663.00,99.64
3662.00,99.63
3661.00,99.62
3660.00,99.61
3659.00,99.60
3658.00,99.59
3657.00,99.59
3656.00,99.59
3655.00,99.58
3654.00,99.58
3653.00,99.58
3652.00,99.58
3651.00,99.58
3650.00,99.57
3649.00,99.57
3648.00,99.58
3647.00,99.58
3646.00,99.58
3645.00,99.57
3644.00,99.56
3643.00,99.56
3642.00,99.56
3641.00,99.56
3640.00,99.57
3639.00,99.57
3638.00,99.56
3637.00,99.55
3636.00,99.54
3635.00,99.53
3634.00,99.52
3633.00,99.52
3632.00,99.51
3631.00,99.51
3630.00,99.51
3629.00,99.50
3628.00,99.50
3627.00,99.50
3626.00,99.51
3625.00,99.52
3624.00,99.53
3623.00,99.53
3622.00,99.54
3621.00,99.54
3620.00,99.53
3619.00,99.52
3618.00,99.50
3617.00,99.49
3616.00,99.49
3615.00,99.48
3614.00,99.47
3613.00,99.45
3612.00,99.44
3611.00,99.42
3610.00,99.42
3609.00,99.42
3608.00,99.43
3607.00,99.45
3606.00,99.46
3605.00,99.47
3604.00,99.47
3603.00,99.46
3602.00,99.46
3601.00,99.45
3600.00,99.44
3599.00,99.43
3598.00,99.42
3597.00,99.41
3596.00,99.40
3595.00,99.39
3594.00,99.38
3593.00,99.37
3592.00,99.36
3591.00,99.36
3590.00,99.36
3589.00,99.36
3588.00,99.36
3587.00,99.36
3586.00,99.35
3585.00,99.35
3584.00,99.35
3583.00,99.34
3582.00,99.34
3581.00,99.34
3580.00,99.34
3579.00,99.34
3578.00,99.35
3577.00,99.34
3576.00,99.34
3575.00,99.33
3574.00,99.33
3573.00,99.32
3572.00,99.32
3571.00,99.31
3570.00,99.30
3569.00,99.30
3568.00,99.29
3567.00,99.28
3566.00,99.26
3565.00,99.26
3564.00,99.25
3563.00,99.24
3562.00,99.24
3561.00,99.25
3560.00,99.25
3559.00,99.25
3558.00,99.25
3557.00,99.24
3556.00,99.22
3555.00,99.21
3554.00,99.20
3553.00,99.20
3552.00,99.19
3551.00,99.19
3550.00,99.19
3549.00,99.18
3548.00,99.16
3547.00,99.15
3546.00,99.13
3545.00,99.13
3544.00,99.12
3543.00,99.13
3542.00,99.13
3541.00,99.13
3540.00,99.13
3539.00,99.13
3538.00,99.13
3537.00,99.12
3536.00,99.12
3535.00,99.11
3534.00,99.10
3533.00,99.09
3532.00,99.09
3531.00,99.08
3530.00,99.06
3529.00,99.05
3528.00,99.03
3527.00,99.02
3526.00,99.01
3525.00,99.01
3524.00,99.01
3523.00,99.01
3522.00,99.01
3521.00,99.01
3520.00,99.01
3519.00,99.01
3518.00,99.00
3517.00,98.99
3516.00,98.98
3515.00,98.97
3514.00,98.97
3513.00,98.96
3512.00,98.96
3511.00,98.95
3510.00,98.94
3509.00,98.93
3508.00,98.92
3507.00,98.92
3506.00,98.91
3505.00,98.91
3504.00,98.90
3503.00,98.89
3502.00,98.89
3501.00,98.89
3500.00,98.89
3499.00,98.90
3498.00,98.89
3497.00,98.89
3496.00,98.88
3495.00,98.87
3494.00,98.86
3493.00,98.85
3492.00,98.84
3491.00,98.84
3490.00,98.83
3489.00,98.83
3488.00,98.84
3487.00,98.85
3486.00,98.85
3485.00,98.84
3484.00,98.84
3483.00,98.83
3482.00,98.82
3481.00,98.82
3480.00,98.82
3479.00,98.82
3478.00,98.82
3477.00,98.82
3476.00,98.82
3475.00,98.81
3474.00,98.81
3473.00,98.81
3472.00,98.80
3471.00,98.80
3470.00,98.79
3469.00,98.79
3468.00,98.78
3467.00,98.78
3466.00,98.77
3465.00,98.76
3464.00,98.76
3463.00,98.76
3462.00,98.75
3461.00,98.75
3460.00,98.74
3459.00,98.73
3458.00,98.73
3457.00,98.72
3456.00,98.72
3455.00,98.71
3454.00,98.71
3453.00,98.71
3452.00,98.71
3451.00,98.72
3450.00,98.72
3449.00,98.71
3448.00,98.71
3447.00,98.70
3446.00,98.69
3445.00,98.69
3444.00,98.69
3443.00,98.69
3442.00,98.69
3441.00,98.68
3440.00,98.68
3439.00,98.67
3438.00,98.66
3437.00,98.66
3436.00,98.66
3435.00,98.66
3434.00,98.66
3433.00,98.66
3432.00,98.65
3431.00,98.65
3430.00,98.64
3429.00,98.64
3428.00,98.63
3427.00,98.63
3426.00,98.63
3425.00,98.63
3424.00,98.63
3423.00,98.63
3422.00,98.62
3421.00,98.61
3420.00,98.60
3419.00,98.60
3418.00,98.59
3417.00,98.59
3416.00,98.59
3415.00,98.59
3414.00,98.58
3413.00,98.58
3412.00,98.57
3411.00,98.56
3410.00,98.56
3409.00,98.55
3408.00,98.55
3407.00,98.54
3406.00,98.53
3405.00,98.53
3404.00,98.53
3403.00,98.53
3402.00,98.53
3401.00,98.52
3400.00,98.51
3399.00,98.50
3398.00,98.49
3397.00,98.49
3396.00,98.48
3395.00,98.48
3394.00,98.47
3393.00,98.47
3392.00,98.47
3391.00,98.46
3390.00,98.46
3389.00,98.45
3388.00,98.44
3387.00,98.44
3386.00,98.43
3385.00,98.43
3384.00,98.42
3383.00,98.41
3382.00,98.40
3381.00,98.39
3380.00,98.38
3379.00,98.37
3378.00,98.36
3377.00,98.35
3376.00,98.34
3375.00,98.32
3374.00,98.30
3373.00,98.29
3372.00,98.27
3371.00,98.26
3370.00,98.25
3369.00,98.23
3368.00,98.22
3367.00,98.20
3366.00,98.19
3365.00,98.17
3364.00,98.16
3363.00,98.14
3362.00,98.13
3361.00,98.11
3360.00,98.09
3359.00,98.07
3358.00,98.05
3357.00,98.02
3356.00,98.00
3355.00,97.97
3354.00,97.94
3353.00,97.92
3352.00,97.89
3351.00,97.86
3350.00,97.84
3349.00,97.81
3348.00,97.79
3347.00,97.76
3346.00,97.73
3345.00,97.69
3344.00,97.66
3343.00,97.62
3342.00,97.58
3341.00,97.54
3340.00,97.49
3339.00,97.45
3338.00,97.40
3337.00,97.35
3336.00,97.30
3335.00,97.24
3334.00,97.19
3333.00,97.12
3332.00,97.06
3331.00,96.99
3330.00,96.92
3329.00,96.85
3328.00,96.76
3327.00,96.68
3326.00,96.59
3325.00,96.51
3324.00,96.43
3323.00,96.36
3322.00,96.28
3321.00,96.20
3320.00,96.11
3319.00,96.02
3318.00,95.93
3317.00,95.85
3316.00,95.76
3315.00,95.68
3314.00,95.59
3313.00,95.49
3312.00,95.38
3311.00,95.28
3310.00,95.17
3309.00,95.05
3308.00,94.95
3307.00,94.84
3306.00,94.75
3305.00,94.65
3304.00,94.57
3303.00,94.49
3302.00,94.42
3301.00,94.36
3300.00,94.31
3299.00,94.28
3298.00,94.26
3297.00,94.26
3296.00,94.28
3295.00,94.32
3294.00,94.37
3293.00,94.44
3292.00,94.51
3291.00,94.59
3290.00,94.68
3289.00,94.76
3288.00,94.85
3287.00,94.94
3286.00,95.03
3285.00,95.11
3284.00,95.19
3283.00,95.27
3282.00,95.35
3281.00,95.42
3280.00,95.49
3279.00,95.56
3278.00,95.62
3277.00,95.68
3276.00,95.74
3275.00,95.80
3274.00,95.86
3273.00,95.92
3272.00,95.98
3271.00,96.03
3270.00,96.08
3269.00,96.13
3268.00,96.18
3267.00,96.24
3266.00,96.29
3265.00,96.35
3264.00,96.41
3263.00,96.46
3262.00,96.52
3261.00,96.57
3260.00,96.61
3259.00,96.66
3258.00,96.70
3257.00,96.75
3256.00,96.81
3255.00,96.85
3254.00,96.90
3253.00,96.94
3252.00,96.98
3251.00,97.02
3250.00,97.06
3249.00,97.11
3248.00,97.15
3247.00,97.19
3246.00,97.23
3245.00,97.28
3244.00,97.31
3243.00,97.35
3242.00,97.39
3241.00,97.43
3240.00,97.46
3239.00,97.49
3238.00,97.53
3237.00,97.56
3236.00,97.60
3235.00,97.63
3234.00,97.66
3233.00,97.68
3232.00,97.71
3231.00,97.73
3230.00,97.75
3229.00,97.77
3228.00,97.79
3227.00,97.81
3226.00,97.84
3225.00,97.86
3224.00,97.88
3223.00,97.90
3222.00,97.92
3221.00,97.93
3220.00,97.95
3219.00,97.96
3218.00,97.98
3217.00,97.99
3216.00,98.00
3215.00,98.01
3214.00,98.03
3213.00,98.04
3212.00,98.06
3211.00,98.07
3210.00,98.09
3209.00,98.10
3208.00,98.10
3207.00,98.11
3206.00,98.11
3205.00,98.11
3204.00,98.12
3203.00,98.14
3202.00,98.15
3201.00,98.16
3200.00,98.17
3199.00,98.18
3198.00,98.19
3197.00,98.20
3196.00,98.21
3195.00,98.22
3194.00,98.23
3193.00,98.25
3192.00,98.26
3191.00,98.28
3190.00,98.28
3189.00,98.29
3188.00,98.30
3187.00,98.31
3186.00,98.33
3185.00,98.34
3184.00,98.35
3183.00,98.36
3182.00,98.38
3181.00,98.40
3180.00,98.42
3179.00,98.44
3178.00,98.46
3177.00,98.47
3176.00,98.48
3175.00,98.49
3174.00,98.51
3173.00,98.53
3172.00,98.55
3171.00,98.57
3170.00,98.59
3169.00,98.61
3168.00,98.62
3167.00,98.63
3166.00,98.64
3165.00,98.65
3164.00,98.66
3163.00,98.67
3162.00,98.68
3161.00,98.69
3160.00,98.70
3159.00,98.72
3158.00,98.73
3157.00,98.74
3156.00,98.75
3155.00,98.75
3154.00,98.76
3153.00,98.76
3152.00,98.77
3151.00,98.77
3150.00,98.78
3149.00,98.79
3148.00,98.80
3147.00,98.80
3146.00,98.80
3145.00,98.81
3144.00,98.81
3143.00,98.81
3142.00,98.81
3141.00,98.82
3140.00,98.82
3139.00,98.82
3138.00,98.82
3137.00,98.82
3136.00,98.82
3135.00,98.82
3134.00,98.82
3133.00,98.83
3132.00,98.83
3131.00,98.83
3130.00,98.83
3129.00,98.83
3128.00,98.82
3127.00,98.82
3126.00,98.82
3125.00,98.81
3124.00,98.81
3123.00,98.81
3122.00,98.80
3121.00,98.80
3120.00,98.79
3119.00,98.79
3118.00,98.78
3117.00,98.78
3116.00,98.77
3115.00,98.76
3114.00,98.75
3113.00,98.74
3112.00,98.72
3111.00,98.70
3110.00,98.69
3109.00,98.67
3108.00,98.66
3107.00,98.65
3106.00,98.63
3105.00,98.62
3104.00,98.61
3103.00,98.59
3102.00,98.57
3101.00,98.55
3100.00,98.53
3099.00,98.52
3098.00,98.51
3097.00,98.51
3096.00,98.50
3095.00,98.49
3094.00,98.48
3093.00,98.47
3092.00,98.46
3091.00,98.45
3090.00,98.45
3089.00,98.44
3088.00,98.43
3087.00,98.41
3086.00,98.40
3085.00,98.39
3084.00,98.38
3083.00,98.38
3082.00,98.38
3081.00,98.38
3080.00,98.38
3079.00,98.39
3078.00,98.39
3077.00,98.39
3076.00,98.40
3075.00,98.40
3074.00,98.40
3073.00,98.40
3072.00,98.39
3071.00,98.39
3070.00,98.40
3069.00,98.41
3068.00,98.42
3067.00,98.43
3066.00,98.44
3065.00,98.45
3064.00,98.45
3063.00,98.46
3062.00,98.47
3061.00,98.48
3060.00,98.50
3059.00,98.51
3058.00,98.53
3057.00,98.55
3056.00,98.56
3055.00,98.58
3054.00,98.60
3053.00,98.62
3052.00,98.64
3051.00,98.67
3050.00,98.69
3049.00,98.72
3048.00,98.74
3047.00,98.76
3046.00,98.79
3045.00,98.81
3044.00,98.83
3043.00,98.85
3042.00,98.87
3041.00,98.89
3040.00,98.90
3039.00,98.92
3038.00,98.93
3037.00,98.94
3036.00,98.95
3035.00,98.97
3034.00,98.98
3033.00,99.00
3032.00,99.01
3031.00,99.02
3030.00,99.02
3029.00,99.03
3028.00,99.03
3027.00,99.04
3026.00,99.06
3025.00,99.07
3024.00,99.07
3023.00,99.08
3022.00,99.08
3021.00,99.08
3020.00,99.09
3019.00,99.09
3018.00,99.10
3017.00,99.10
3016.00,99.10
3015.00,99.10
3014.00,99.11
3013.00,99.11
3012.00,99.12
3011.00,99.12
3010.00,99.12
3009.00,99.12
3008.00,99.12
3007.00,99.11
3006.00,99.11
3005.00,99.10
3004.00,99.10
3003.00,99.10
3002.00,99.10
3001.00,99.10
3000.00,99.10
2999.00,99.09
2998.00,99.08
2997.00,99.07
2996.00,99.06
2995.00,99.05
2994.00,99.05
2993.00,99.04
2992.00,99.03
2991.00,99.01
2990.00,99.00
2989.00,98.98
2988.00,98.97
2987.00,98.95
2986.00,98.93
2985.00,98.91
2984.00,98.88
2983.00,98.85
2982.00,98.81
2981.00,98.78
2980.00,98.75
2979.00,98.71
2978.00,98.67
2977.00,98.63
2976.00,98.58
2975.00,98.53
2974.00,98.47
2973.00,98.42
2972.00,98.35
2971.00,98.29
2970.00,98.22
2969.00,98.14
2968.00,98.06
2967.00,97.99
2966.00,97.91
2965.00,97.84
2964.00,97.76
2963.00,97.69
2962.00,97.63
2961.00,97.56
2960.00,97.49
2959.00,97.42
2958.00,97.34
2957.00,97.25
2956.00,97.16
2955.00,97.05
2954.00,96.93
2953.00,96.79
2952.00,96.64
2951.00,96.48
2950.00,96.32
2949.00,96.15
2948.00,95.98
2947.00,95.82
2946.00,95.67
2945.00,95.53
2944.00,95.41
2943.00,95.30
2942.00,95.20
2941.00,95.11
2940.00,95.02
2939.00,94.94
2938.00,94.86
2937.00,94.78
2936.00,94.71
2935.00,94.66
2934.00,94.62
2933.00,94.60
2932.00,94.59
2931.00,94.60
2930.00,94.62
2929.00,94.65
2928.00,94.69
2927.00,94.74
2926.00,94.79
2925.00,94.85
2924.00,94.92
2923.00,95.00
2922.00,95.10
2921.00,95.21
2920.00,95.34
2919.00,95.48
2918.00,95.64
2917.00,95.79
2916.00,95.92
2915.00,96.04
2914.00,96.14
2913.00,96.22
2912.00,96.29
2911.00,96.35
2910.00,96.41
2909.00,96.46
2908.00,96.51
2907.00,96.56
2906.00,96.61
2905.00,96.66
2904.00,96.70
2903.00,96.74
2902.00,96.78
2901.00,96.81
2900.00,96.83
2899.00,96.86
2898.00,96.90
2897.00,96.95
2896.00,97.01
2895.00,97.08
2894.00,97.15
2893.00,97.23
2892.00,97.30
2891.00,97.36
2890.00,97.41
2889.00,97.45
2888.00,97.49
2887.00,97.51
2886.00,97.52
2885.00,97.52
2884.00,97.50
2883.00,97.47
2882.00,97.42
2881.00,97.37
2880.00,97.31
2879.00,97.23
2878.00,97.15
2877.00,97.06
2876.00,96.96
2875.00,96.86
2874.00,96.76
2873.00,96.68
2872.00,96.61
2871.00,96.54
2870.00,96.49
2869.00,96.44
2868.00,96.41
2867.00,96.38
2866.00,96.36
2865.00,96.34
2864.00,96.32
2863.00,96.31
2862.00,96.30
2861.00,96.29
2860.00,96.29
2859.00,96.29
2858.00,96.29
2857.00,96.31
2856.00,96.33
2855.00,96.37
2854.00,96.42
2853.00,96.49
2852.00,96.59
2851.00,96.72
2850.00,96.88
2849.00,97.06
2848.00,97.25
2847.00,97.43
2846.00,97.60
2845.00,97.76
2844.00,97.90
2843.00,98.02
2842.00,98.12
2841.00,98.21
2840.00,98.29
2839.00,98.36
2838.00,98.42
2837.00,98.47
2836.00,98.52
2835.00,98.56
2834.00,98.59
2833.00,98.62
2832.00,98.65
2831.00,98.67
2830.00,98.69
2829.00,98.71
2828.00,98.73
2827.00,98.75
2826.00,98.76
2825.00,98.78
2824.00,98.79
2823.00,98.80
2822.00,98.81
2821.00,98.83
2820.00,98.84
2819.00,98.85
2818.00,98.87
2817.00,98.88
2816.00,98.89
2815.00,98.90
2814.00,98.92
2813.00,98.93
2812.00,98.94
2811.00,98.95
2810.00,98.97
2809.00,98.98
2808.00,99.00
2807.00,99.01
2806.00,99.02
2805.00,99.03
2804.00,99.03
2803.00,99.04
2802.00,99.04
2801.00,99.05
2800.00,99.06
2799.00,99.07
2798.00,99.07
2797.00,99.08
2796.00,99.08
2795.00,99.08
2794.00,99.09
2793.00,99.10
2792.00,99.11
2791.00,99.12
2790.00,99.12
2789.00,99.13
2788.00,99.13
2787.00,99.13
2786.00,99.14
2785.00,99.14
2784.00,99.15
2783.00,99.16
2782.00,99.16
2781.00,99.17
2780.00,99.18
2779.00,99.18
2778.00,99.19
2777.00,99.19
2776.00,99.20
2775.00,99.20
2774.00,99.21
2773.00,99.21
2772.00,99.21
2771.00,99.22
2770.00,99.22
2769.00,99.22
2768.00,99.22
2767.00,99.22
2766.00,99.22
2765.00,99.23
2764.00,99.23
2763.00,99.24
2762.00,99.24
2761.00,99.24
2760.00,99.24
2759.00,99.24
2758.00,99.24
2757.00,99.23
2756.00,99.23
2755.00,99.23
2754.00,99.24
2753.00,99.24
2752.00,99.25
2751.00,99.25
2750.00,99.26
2749.00,99.26
2748.00,99.26
2747.00,99.26
2746.00,99.26
2745.00,99.26
2744.00,99.26
2743.00,99.26
2742.00,99.26
2741.00,99.26
2740.00,99.27
2739.00,99.27
2738.00,99.27
2737.00,99.28
2736.00,99.28
2735.00,99.28
2734.00,99.29
2733.00,99.29
2732.00,99.30
2731.00,99.30
2730.00,99.31
2729.00,99.31
2728.00,99.31
2727.00,99.32
2726.00,99.32
2725.00,99.32
2724.00,99.33
2723.00,99.33
2722.00,99.34
2721.00,99.34
2720.00,99.34
2719.00,99.34
2718.00,99.34
2717.00,99.34
2716.00,99.35
2715.00,99.35
2714.00,99.35
2713.00,99.35
2712.00,99.35
2711.00,99.35
2710.00,99.36
2709.00,99.36
2708.00,99.36
2707.00,99.36
2706.00,99.36
2705.00,99.36
2704.00,99.37
2703.00,99.37
2702.00,99.37
2701.00,99.37
2700.00,99.37
2699.00,99.37
2698.00,99.38
2697.00,99.38
2696.00,99.38
2695.00,99.38
2694.00,99.38
2693.00,99.38
2692.00,99.38
2691.00,99.38
2690.00,99.38
2689.00,99.38
2688.00,99.38
2687.00,99.38
2686.00,99.38
2685.00,99.39
2684.00,99.39
2683.00,99.40
2682.00,99.41
2681.00,99.41
2680.00,99.42
2679.00,99.42
2678.00,99.41
2677.00,99.41
2676.00,99.40
2675.00,99.40
2674.00,99.40
2673.00,99.40
2672.00,99.40
2671.00,99.40
2670.00,99.40
2669.00,99.40
2668.00,99.40
2667.00,99.40
2666.00,99.40
2665.00,99.40
2664.00,99.40
2663.00,99.40
2662.00,99.39
2661.00,99.39
2660.00,99.38
2659.00,99.38
2658.00,99.37
2657.00,99.37
2656.00,99.37
2655.00,99.37
2654.00,99.37
2653.00,99.37
2652.00,99.37
2651.00,99.38
2650.00,99.38
2649.00,99.38
2648.00,99.38
2647.00,99.38
2646.00,99.38
2645.00,99.38
2644.00,99.38
2643.00,99.38
2642.00,99.38
2641.00,99.38
2640.00,99.38
2639.00,99.39
2638.00,99.39
2637.00,99.39
2636.00,99.40
2635.00,99.40
2634.00,99.40
2633.00,99.40
2632.00,99.39
2631.00,99.39
2630.00,99.39
2629.00,99.40
2628.00,99.40
2627.00,99.40
2626.00,99.40
2625.00,99.40
2624.00,99.40
2623.00,99.39
2622.00,99.39
2621.00,99.40
2620.00,99.41
2619.00,99.42
2618.00,99.43
2617.00,99.43
2616.00,99.43
2615.00,99.43
2614.00,99.42
2613.00,99.41
2612.00,99.41
2611.00,99.41
2610.00,99.42
2609.00,99.42
2608.00,99.43
2607.00,99.43
2606.00,99.42
2605.00,99.42
2604.00,99.42
2603.00,99.43
2602.00,99.43
2601.00,99.43
2600.00,99.44
2599.00,99.44
2598.00,99.44
2597.00,99.44
2596.00,99.44
2595.00,99.44
2594.00,99.44
2593.00,99.45
2592.00,99.45
2591.00,99.45
2590.00,99.45
2589.00,99.45
2588.00,99.45
2587.00,99.45
2586.00,99.45
2585.00,99.45
2584.00,99.45
2583.00,99.45
2582.00,99.46
2581.00,99.47
2580.00,99.48
2579.00,99.48
2578.00,99.48
2577.00,99.48
2576.00,99.48
2575.00,99.48
2574.00,99.48
2573.00,99.48
2572.00,99.48
2571.00,99.48
2570.00,99.48
2569.00,99.47
2568.00,99.47
2567.00,99.46
2566.00,99.46
2565.00,99.46
2564.00,99.47
2563.00,99.48
2562.00,99.48
2561.00,99.47
2560.00,99.47
2559.00,99.47
2558.00,99.48
2557.00,99.49
2556.00,99.50
2555.00,99.51
2554.00,99.51
2553.00,99.51
2552.00,99.51
2551.00,99.51
2550.00,99.51
2549.00,99.51
2548.00,99.51
2547.00,99.50
2546.00,99.51
2545.00,99.51
2544.00,99.51
2543.00,99.52
2542.00,99.52
2541.00,99.51
2540.00,99.50
2539.00,99.50
2538.00,99.50
2537.00,99.50
2536.00,99.51
2535.00,99.51
2534.00,99.51
2533.00,99.51
2532.00,99.51
2531.00,99.51
2530.00,99.52
2529.00,99.52
2528.00,99.52
2527.00,99.52
2526.00,99.51
2525.00,99.50
2524.00,99.49
2523.00,99.49
2522.00,99.50
2521.00,99.51
2520.00,99.52
2519.00,99.52
2518.00,99.53
2517.00,99.53
2516.00,99.53
2515.00,99.53
2514.00,99.54
2513.00,99.54
2512.00,99.54
2511.00,99.54
2510.00,99.55
2509.00,99.55
2508.00,99.56
2507.00,99.56
2506.00,99.56
2505.00,99.55
2504.00,99.55
2503.00,99.55
2502.00,99.55
2501.00,99.55
2500.00,99.55
2499.00,99.55
2498.00,99.55
2497.00,99.54
2496.00,99.53
2495.00,99.52
2494.00,99.52
2493.00,99.53
2492.00,99.54
2491.00,99.54
2490.00,99.54
2489.00,99.54
2488.00,99.54
2487.00,99.54
2486.00,99.55
2485.00,99.55
2484.00,99.54
2483.00,99.54
2482.00,99.54
2481.00,99.54
2480.00,99.54
2479.00,99.54
2478.00,99.55
2477.00,99.56
2476.00,99.57
2475.00,99.57
2474.00,99.57
2473.00,99.56
2472.00,99.55
2471.00,99.55
2470.00,99.55
2469.00,99.54
2468.00,99.54
2467.00,99.54
2466.00,99.55
2465.00,99.56
2464.00,99.56
2463.00,99.57
2462.00,99.56
2461.00,99.55
2460.00,99.54
2459.00,99.54
2458.00,99.55
2457.00,99.55
2456.00,99.55
2455.00,99.55
2454.00,99.55
2453.00,99.55
2452.00,99.55
2451.00,99.55
2450.00,99.54
2449.00,99.53
2448.00,99.54
2447.00,99.55
2446.00,99.56
2445.00,99.57
2444.00,99.58
2443.00,99.58
2442.00,99.58
2441.00,99.58
2440.00,99.58
2439.00,99.58
2438.00,99.58
2437.00,99.58
2436.00,99.57
2435.00,99.57
2434.00,99.57
2433.00,99.58
2432.00,99.58
2431.00,99.59
2430.00,99.59
2429.00,99.59
2428.00,99.59
2427.00,99.59
2426.00,99.59
2425.00,99.59
2424.00,99.59
2423.00,99.59
2422.00,99.59
2421.00,99.59
2420.00,99.59
2419.00,99.59
2418.00,99.59
2417.00,99.58
2416.00,99.57
2415.00,99.57
2414.00,99.57
2413.00,99.57
2412.00,99.57
2411.00,99.58
2410.00,99.59
2409.00,99.59
2408.00,99.60
2407.00,99.60
2406.00,99.61
2405.00,99.61
2404.00,99.62
2403.00,99.62
2402.00,99.63
2401.00,99.63
2400.00,99.62
2399.00,99.61
2398.00,99.60
2397.00,99.60
2396.00,99.59
2395.00,99.59
2394.00,99.60
2393.00,99.60
2392.00,99.61
2391.00,99.61
2390.00,99.61
2389.00,99.61
2388.00,99.60
2387.00,99.60
2386.00,99.59
2385.00,99.58
2384.00,99.57
2383.00,99.57
2382.00,99.57
2381.00,99.59
2380.00,99.60
2379.00,99.61
2378.00,99.62
2377.00,99.63
2376.00,99.64
2375.00,99.65
2374.00,99.66
2373.00,99.67
2372.00,99.67
2371.00,99.68
2370.00,99.67
2369.00,99.67
2368.00,99.66
2367.00,99.64
2366.00,99.63
2365.00,99.62
2364.00,99.60
2363.00,99.60
2362.00,99.59
2361.00,99.60
2360.00,99.61
2359.00,99.62
2358.00,99.62
2357.00,99.61
2356.00,99.60
2355.00,99.60
2354.00,99.62
2353.00,99.63
2352.00,99.64
2351.00,99.64
2350.00,99.62
2349.00,99.58
2348.00,99.53
2347.00,99.49
2346.00,99.49
2345.00,99.52
2344.00,99.56
2343.00,99.57
2342.00,99.56
2341.00,99.55
2340.00,99.55
2339.00,99.55
2338.00,99.56
2337.00,99.55
2336.00,99.54
2335.00,99.52
2334.00,99.51
2333.00,99.51
2332.00,99.51
2331.00,99.51
2330.00,99.51
2329.00,99.51
2328.00,99.51
2327.00,99.49
2326.00,99.46
2325.00,99.41
2324.00,99.37
2323.00,99.36
2322.00,99.38
2321.00,99.41
2320.00,99.44
2319.00,99.46
2318.00,99.47
2317.00,99.48
2316.00,99.48
2315.00,99.48
2314.00,99.48
2313.00,99.48
2312.00,99.48
2311.00,99.48
2310.00,99.48
2309.00,99.48
2308.00,99.48
2307.00,99.48
2306.00,99.48
2305.00,99.48
2304.00,99.48
2303.00,99.48
2302.00,99.47
2301.00,99.47
2300.00,99.47
2299.00,99.48
2298.00,99.48
2297.00,99.48
2296.00,99.48
2295.00,99.48
2294.00,99.47
2293.00,99.47
2292.00,99.46
2291.00,99.46
2290.00,99.45
2289.00,99.45
2288.00,99.44
2287.00,99.43
2286.00,99.43
2285.00,99.44
2284.00,99.45
2283.00,99.47
2282.00,99.49
2281.00,99.50
2280.00,99.51
2279.00,99.51
2278.00,99.52
2277.00,99.52
2276.00,99.52
2275.00,99.52
2274.00,99.53
2273.00,99.53
2272.00,99.53
2271.00,99.53
2270.00,99.53
2269.00,99.53
2268.00,99.55
2267.00,99.57
2266.00,99.59
2265.00,99.60
2264.00,99.60
2263.00,99.59
2262.00,99.58
2261.00,99.56
2260.00,99.55
2259.00,99.53
2258.00,99.53
2257.00,99.53
2256.00,99.54
2255.00,99.54
2254.00,99.54
2253.00,99.54
2252.00,99.55
2251.00,99.56
2250.00,99.57
2249.00,99.57
2248.00,99.57
2247.00,99.57
2246.00,99.57
2245.00,99.57
2244.00,99.56
2243.00,99.56
2242.00,99.56
2241.00,99.56
2240.00,99.55
2239.00,99.55
2238.00,99.56
2237.00,99.57
2236.00,99.57
2235.00,99.58
2234.00,99.57
2233.00,99.57
2232.00,99.56
2231.00,99.56
2230.00,99.57
2229.00,99.58
2228.00,99.58
2227.00,99.58
2226.00,99.58
2225.00,99.58
2224.00,99.57
2223.00,99.56
2222.00,99.55
2221.00,99.55
2220.00,99.56
2219.00,99.56
2218.00,99.56
2217.00,99.56
2216.00,99.55
2215.00,99.54
2214.00,99.54
2213.00,99.55
2212.00,99.57
2211.00,99.57
2210.00,99.57
2209.00,99.57
2208.00,99.57
2207.00,99.57
2206.00,99.57
2205.00,99.55
2204.00,99.53
2203.00,99.51
2202.00,99.51
2201.00,99.52
2200.00,99.56
2199.00,99.60
2198.00,99.62
2197.00,99.62
2196.00,99.59
2195.00,99.57
2194.00,99.55
2193.00,99.54
2192.00,99.53
2191.00,99.52
2190.00,99.51
2189.00,99.51
2188.00,99.51
2187.00,99.51
2186.00,99.50
2185.00,99.50
2184.00,99.51
2183.00,99.54
2182.00,99.59
2181.00,99.63
2180.00,99.64
2179.00,99.62
2178.00,99.60
2177.00,99.58
2176.00,99.58
2175.00,99.59
2174.00,99.58
2173.00,99.56
2172.00,99.52
2171.00,99.47
2170.00,99.43
2169.00,99.39
2168.00,99.36
2167.00,99.36
2166.00,99.38
2165.00,99.41
2164.00,99.43
2163.00,99.43
2162.00,99.43
2161.00,99.45
2160.00,99.52
2159.00,99.62
2158.00,99.71
2157.00,99.77
2156.00,99.79
2155.00,99.81
2154.00,99.81
2153.00,99.79
2152.00,99.76
2151.00,99.74
2150.00,99.71
2149.00,99.69
2148.00,99.68
2147.00,99.67
2146.00,99.68
2145.00,99.69
2144.00,99.71
2143.00,99.73
2142.00,99.74
2141.00,99.75
2140.00,99.74
2139.00,99.73
2138.00,99.70
2137.00,99.68
2136.00,99.68
2135.00,99.70
2134.00,99.73
2133.00,99.76
2132.00,99.77
2131.00,99.77
2130.00,99.75
2129.00,99.74
2128.00,99.73
2127.00,99.72
2126.00,99.72
2125.00,99.72
2124.00,99.72
2123.00,99.71
2122.00,99.70
2121.00,99.68
2120.00,99.66
2119.00,99.65
2118.00,99.64
2117.00,99.63
2116.00,99.61
2115.00,99.59
2114.00,99.57
2113.00,99.56
2112.00,99.56
2111.00,99.56
2110.00,99.57
2109.00,99.58
2108.00,99.59
2107.00,99.60
2106.00,99.62
2105.00,99.63
2104.00,99.64
2103.00,99.63
2102.00,99.62
2101.00,99.60
2100.00,99.58
2099.00,99.58
2098.00,99.59
2097.00,99.61
2096.00,99.63
2095.00,99.65
2094.00,99.67
2093.00,99.68
2092.00,99.68
2091.00,99.67
2090.00,99.65
2089.00,99.62
2088.00,99.59
2087.00,99.57
2086.00,99.57
2085.00,99.57
2084.00,99.57
2083.00,99.57
2082.00,99.58
2081.00,99.58
2080.00,99.58
2079.00,99.57
2078.00,99.56
2077.00,99.55
2076.00,99.55
2075.00,99.57
2074.00,99.59
2073.00,99.61
2072.00,99.61
2071.00,99.60
2070.00,99.60
2069.00,99.61
2068.00,99.61
2067.00,99.60
2066.00,99.58
2065.00,99.55
2064.00,99.54
2063.00,99.54
2062.00,99.56
2061.00,99.58
2060.00,99.59
2059.00,99.59
2058.00,99.59
2057.00,99.58
2056.00,99.59
2055.00,99.59
2054.00,99.57
2053.00,99.51
2052.00,99.44
2051.00,99.38
2050.00,99.38
2049.00,99.43
2048.00,99.49
2047.00,99.54
2046.00,99.56
2045.00,99.54
2044.00,99.51
2043.00,99.49
2042.00,99.49
2041.00,99.50
2040.00,99.49
2039.00,99.48
2038.00,99.45
2037.00,99.42
2036.00,99.40
2035.00,99.42
2034.00,99.48
2033.00,99.55
2032.00,99.59
2031.00,99.59
2030.00,99.56
2029.00,99.52
2028.00,99.51
2027.00,99.51
2026.00,99.51
2025.00,99.50
2024.00,99.50
2023.00,99.50
2022.00,99.51
2021.00,99.53
2020.00,99.55
2019.00,99.58
2018.00,99.60
2017.00,99.60
2016.00,99.61
2015.00,99.61
2014.00,99.61
2013.00,99.60
2012.00,99.59
2011.00,99.58
2010.00,99.58
2009.00,99.58
2008.00,99.60
2007.00,99.63
2006.00,99.67
2005.00,99.67
2004.00,99.66
2003.00,99.65
2002.00,99.64
2001.00,99.64
2000.00,99.65
1999.00,99.66
1998.00,99.68
1997.00,99.69
1996.00,99.67
1995.00,99.63
1994.00,99.60
1993.00,99.59
1992.00,99.59
1991.00,99.59
1990.00,99.58
1989.00,99.56
1988.00,99.54
1987.00,99.53
1986.00,99.52
1985.00,99.51
1984.00,99.50
1983.00,99.49
1982.00,99.47
1981.00,99.43
1980.00,99.40
1979.00,99.40
1978.00,99.43
1977.00,99.48
1976.00,99.53
1975.00,99.59
1974.00,99.65
1973.00,99.69
1972.00,99.72
1971.00,99.74
1970.00,99.74
1969.00,99.70
1968.00,99.64
1967.00,99.59
1966.00,99.58
1965.00,99.59
1964.00,99.63
1963.00,99.69
1962.00,99.74
1961.00,99.78
1960.00,99.79
1959.00,99.79
1958.00,99.78
1957.00,99.75
1956.00,99.72
1955.00,99.70
1954.00,99.69
1953.00,99.69
1952.00,99.70
1951.00,99.72
1950.00,99.73
1949.00,99.72
1948.00,99.71
1947.00,99.70
1946.00,99.70
1945.00,99.71
1944.00,99.71
1943.00,99.70
1942.00,99.68
1941.00,99.67
1940.00,99.66
1939.00,99.67
1938.00,99.67
1937.00,99.67
1936.00,99.66
1935.00,99.66
1934.00,99.66
1933.00,99.67
1932.00,99.67
1931.00,99.68
1930.00,99.69
1929.00,99.70
1928.00,99.70
1927.00,99.70
1926.00,99.69
1925.00,99.67
1924.00,99.65
1923.00,99.64
1922.00,99.63
1921.00,99.63
1920.00,99.63
1919.00,99.64
1918.00,99.66
1917.00,99.69
1916.00,99.70
1915.00,99.70
1914.00,99.68
1913.00,99.66
1912.00,99.65
1911.00,99.65
1910.00,99.65
1909.00,99.64
1908.00,99.63
1907.00,99.62
1906.00,99.63
1905.00,99.65
1904.00,99.67
1903.00,99.67
1902.00,99.67
1901.00,99.67
1900.00,99.68
1899.00,99.69
1898.00,99.69
1897.00,99.68
1896.00,99.66
1895.00,99.64
1894.00,99.63
1893.00,99.63
1892.00,99.63
1891.00,99.64
1890.00,99.65
1889.00,99.66
1888.00,99.66
1887.00,99.66
1886.00,99.65
1885.00,99.64
1884.00,99.63
1883.00,99.63
1882.00,99.63
1881.00,99.64
1880.00,99.65
1879.00,99.64
1878.00,99.63
1877.00,99.63
1876.00,99.63
1875.00,99.64
1874.00,99.65
1873.00,99.67
1872.00,99.68
1871.00,99.69
1870.00,99.70
1869.00,99.69
1868.00,99.68
1867.00,99.66
1866.00,99.65
1865.00,99.65
1864.00,99.65
1863.00,99.65
1862.00,99.65
1861.00,99.66
1860.00,99.66
1859.00,99.67
1858.00,99.67
1857.00,99.68
1856.00,99.67
1855.00,99.67
1854.00,99.67
1853.00,99.66
1852.00,99.66
1851.00,99.66
1850.00,99.66
1849.00,99.66
1848.00,99.65
1847.00,99.65
1846.00,99.66
1845.00,99.67
1844.00,99.67
1843.00,99.68
1842.00,99.68
1841.00,99.67
1840.00,99.66
1839.00,99.66
1838.00,99.66
1837.00,99.65
1836.00,99.65
1835.00,99.65
1834.00,99.65
1833.00,99.65
1832.00,99.66
1831.00,99.66
1830.00,99.66
1829.00,99.66
1828.00,99.67
1827.00,99.67
1826.00,99.66
1825.00,99.66
1824.00,99.65
1823.00,99.65
1822.00,99.64
1821.00,99.65
1820.00,99.65
1819.00,99.66
1818.00,99.67
1817.00,99.68
1816.00,99.68
1815.00,99.67
1814.00,99.66
1813.00,99.66
1812.00,99.65
1811.00,99.65
1810.00,99.65
1809.00,99.65
1808.00,99.65
1807.00,99.64
1806.00,99.64
1805.00,99.63
1804.00,99.63
1803.00,99.62
1802.00,99.62
1801.00,99.61
1800.00,99.61
1799.00,99.60
1798.00,99.59
1797.00,99.59
1796.00,99.59
1795.00,99.60
1794.00,99.60
1793.00,99.60
1792.00,99.59
1791.00,99.59
1790.00,99.59
1789.00,99.59
1788.00,99.59
1787.00,99.58
1786.00,99.57
1785.00,99.57
1784.00,99.56
1783.00,99.56
1782.00,99.56
1781.00,99.56
1780.00,99.56
1779.00,99.55
1778.00,99.55
1777.00,99.55
1776.00,99.55
1775.00,99.56
1774.00,99.57
1773.00,99.57
1772.00,99.56
1771.00,99.55
1770.00,99.53
1769.00,99.50
1768.00,99.47
1767.00,99.46
1766.00,99.45
1765.00,99.45
1764.00,99.44
1763.00,99.42
1762.00,99.40
1761.00,99.38
1760.00,99.36
1759.00,99.34
1758.00,99.32
1757.00,99.29
1756.00,99.28
1755.00,99.27
1754.00,99.25
1753.00,99.22
1752.00,99.18
1751.00,99.14
1750.00,99.11
1749.00,99.07
1748.00,99.03
1747.00,99.00
1746.00,98.96
1745.00,98.92
1744.00,98.88
1743.00,98.84
1742.00,98.81
1741.00,98.78
1740.00,98.75
1739.00,98.74
1738.00,98.74
1737.00,98.75
1736.00,98.76
1735.00,98.76
1734.00,98.77
1733.00,98.78
1732.00,98.77
1731.00,98.76
1730.00,98.76
1729.00,98.76
1728.00,98.76
1727.00,98.76
1726.00,98.76
1725.00,98.76
1724.00,98.75
1723.00,98.75
1722.00,98.76
1721.00,98.78
1720.00,98.81
1719.00,98.82
1718.00,98.81
1717.00,98.79
1716.00,98.78
1715.00,98.76
1714.00,98.74
1713.00,98.74
1712.00,98.74
1711.00,98.73
1710.00,98.73
1709.00,98.74
1708.00,98.74
1707.00,98.74
1706.00,98.74
1705.00,98.73
1704.00,98.73
1703.00,98.73
1702.00,98.72
1701.00,98.71
1700.00,98.69
1699.00,98.69
1698.00,98.68
1697.00,98.65
1696.00,98.61
1695.00,98.58
1694.00,98.54
1693.00,98.50
1692.00,98.46
1691.00,98.41
1690.00,98.36
1689.00,98.32
1688.00,98.29
1687.00,98.27
1686.00,98.24
1685.00,98.16
1684.00,98.01
1683.00,97.87
1682.00,97.75
1681.00,97.64
1680.00,97.53
1679.00,97.44
1678.00,97.36
1677.00,97.26
1676.00,97.13
1675.00,96.98
1674.00,96.82
1673.00,96.69
1672.00,96.54
1671.00,96.35
1670.00,96.09
1669.00,95.77
1668.00,95.46
1667.00,95.19
1666.00,94.96
1665.00,94.73
1664.00,94.48
1663.00,94.19
1662.00,93.91
1661.00,93.65
1660.00,93.43
1659.00,93.23
1658.00,93.07
1657.00,92.94
1656.00,92.85
1655.00,92.76
1654.00,92.55
1653.00,92.16
1652.00,91.77
1651.00,91.53
1650.00,91.37
1649.00,91.21
1648.00,90.99
1647.00,90.64
1646.00,90.25
1645.00,89.92
1644.00,89.66
1643.00,89.43
1642.00,89.23
1641.00,89.03
1640.00,88.87
1639.00,88.74
1638.00,88.68
1637.00,88.67
1636.00,88.69
1635.00,88.76
1634.00,88.86
1633.00,89.00
1632.00,89.17
1631.00,89.36
1630.00,89.59
1629.00,89.82
1628.00,90.05
1627.00,90.27
1626.00,90.48
1625.00,90.70
1624.00,90.95
1623.00,91.21
1622.00,91.46
1621.00,91.70
1620.00,91.95
1619.00,92.22
1618.00,92.53
1617.00,92.84
1616.00,93.12
1615.00,93.34
1614.00,93.52
1613.00,93.70
1612.00,93.90
1611.00,94.10
1610.00,94.31
1609.00,94.50
1608.00,94.69
1607.00,94.88
1606.00,95.07
1605.00,95.24
1604.00,95.42
1603.00,95.58
1602.00,95.73
1601.00,95.86
1600.00,95.98
1599.00,96.10
1598.00,96.20
1597.00,96.30
1596.00,96.38
1595.00,96.46
1594.00,96.53
1593.00,96.59
1592.00,96.63
1591.00,96.67
1590.00,96.69
1589.00,96.71
1588.00,96.72
1587.00,96.74
1586.00,96.73
1585.00,96.72
1584.00,96.70
1583.00,96.68
1582.00,96.65
1581.00,96.63
1580.00,96.62
1579.00,96.62
1578.00,96.60
1577.00,96.53
1576.00,96.39
1575.00,96.23
1574.00,96.08
1573.00,95.96
1572.00,95.85
1571.00,95.71
1570.00,95.52
1569.00,95.28
1568.00,95.08
1567.00,94.92
1566.00,94.77
1565.00,94.61
1564.00,94.46
1563.00,94.36
1562.00,94.29
1561.00,94.24
1560.00,94.13
1559.00,93.82
1558.00,93.49
1557.00,93.29
1556.00,93.13
1555.00,92.97
1554.00,92.79
1553.00,92.60
1552.00,92.42
1551.00,92.22
1550.00,91.98
1549.00,91.74
1548.00,91.53
1547.00,91.36
1546.00,91.18
1545.00,90.99
1544.00,90.81
1543.00,90.67
1542.00,90.56
1541.00,90.42
1540.00,90.22
1539.00,90.00
1538.00,89.83
1537.00,89.71
1536.00,89.64
1535.00,89.59
1534.00,89.55
1533.00,89.52
1532.00,89.53
1531.00,89.56
1530.00,89.63
1529.00,89.72
1528.00,89.84
1527.00,89.98
1526.00,90.15
1525.00,90.33
1524.00,90.52
1523.00,90.73
1522.00,90.95
1521.00,91.19
1520.00,91.40
1519.00,91.60
1518.00,91.80
1517.00,92.01
1516.00,92.22
1515.00,92.41
1514.00,92.60
1513.00,92.79
1512.00,92.99
1511.00,93.17
1510.00,93.36
1509.00,93.55
1508.00,93.74
1507.00,93.95
1506.00,94.15
1505.00,94.31
1504.00,94.42
1503.00,94.52
1502.00,94.64
1501.00,94.78
1500.00,94.93
1499.00,95.07
1498.00,95.20
1497.00,95.31
1496.00,95.42
1495.00,95.52
1494.00,95.62
1493.00,95.72
1492.00,95.81
1491.00,95.89
1490.00,95.95
1489.00,95.98
1488.00,96.00
1487.00,95.99
1486.00,95.95
1485.00,95.87
1484.00,95.76
1483.00,95.60
1482.00,95.41
1481.00,95.20
1480.00,95.00
1479.00,94.85
1478.00,94.73
1477.00,94.65
1476.00,94.60
1475.00,94.61
1474.00,94.67
1473.00,94.76
1472.00,94.83
1471.00,94.87
1470.00,94.85
1469.00,94.79
1468.00,94.69
1467.00,94.55
1466.00,94.38
1465.00,94.17
1464.00,94.00
1463.00,93.93
1462.00,93.96
1461.00,94.05
1460.00,94.19
1459.00,94.33
1458.00,94.44
1457.00,94.48
1456.00,94.49
1455.00,94.50
1454.00,94.52
1453.00,94.54
1452.00,94.57
1451.00,94.61
1450.00,94.65
1449.00,94.69
1448.00,94.72
1447.00,94.75
1446.00,94.76
1445.00,94.78
1444.00,94.78
1443.00,94.78
1442.00,94.77
1441.00,94.76
1440.00,94.75
1439.00,94.75
1438.00,94.74
1437.00,94.73
1436.00,94.71
1435.00,94.72
1434.00,94.75
1433.00,94.81
1432.00,94.89
1431.00,94.97
1430.00,95.05
1429.00,95.11
1428.00,95.16
1427.00,95.19
1426.00,95.19
1425.00,95.16
1424.00,95.09
1423.00,95.01
1422.00,94.94
1421.00,94.88
1420.00,94.80
1419.00,94.70
1418.00,94.63
1417.00,94.63
1416.00,94.68
1415.00,94.79
1414.00,94.92
1413.00,95.06
1412.00,95.22
1411.00,95.38
1410.00,95.55
1409.00,95.71
1408.00,95.85
1407.00,95.98
1406.00,96.08
1405.00,96.17
1404.00,96.25
1403.00,96.31
1402.00,96.37
1401.00,96.42
1400.00,96.44
1399.00,96.45
1398.00,96.45
1397.00,96.45
1396.00,96.43
1395.00,96.41
1394.00,96.38
1393.00,96.35
1392.00,96.34
1391.00,96.32
1390.00,96.30
1389.00,96.26
1388.00,96.20
1387.00,96.12
1386.00,96.04
1385.00,95.98
1384.00,95.92
1383.00,95.85
1382.00,95.76
1381.00,95.66
1380.00,95.55
1379.00,95.43
1378.00,95.32
1377.00,95.22
1376.00,95.12
1375.00,95.02
1374.00,94.92
1373.00,94.85
1372.00,94.80
1371.00,94.78
1370.00,94.77
1369.00,94.78
1368.00,94.79
1367.00,94.81
1366.00,94.84
1365.00,94.89
1364.00,94.93
1363.00,94.99
1362.00,95.05
1361.00,95.12
1360.00,95.19
1359.00,95.27
1358.00,95.35
1357.00,95.42
1356.00,95.49
1355.00,95.55
1354.00,95.60
1353.00,95.66
1352.00,95.71
1351.00,95.76
1350.00,95.80
1349.00,95.84
1348.00,95.87
1347.00,95.90
1346.00,95.92
1345.00,95.95
1344.00,95.98
1343.00,96.00
1342.00,96.01
1341.00,96.03
1340.00,96.03
1339.00,96.03
1338.00,96.04
1337.00,96.06
1336.00,96.07
1335.00,96.09
1334.00,96.12
1333.00,96.14
1332.00,96.17
1331.00,96.19
1330.00,96.21
1329.00,96.23
1328.00,96.24
1327.00,96.26
1326.00,96.26
1325.00,96.26
1324.00,96.25
1323.00,96.24
1322.00,96.23
1321.00,96.22
1320.00,96.20
1319.00,96.20
1318.00,96.19
1317.00,96.20
1316.00,96.21
1315.00,96.22
1314.00,96.23
1313.00,96.23
1312.00,96.23
1311.00,96.22
1310.00,96.21
1309.00,96.19
1308.00,96.17
1307.00,96.16
1306.00,96.14
1305.00,96.13
1304.00,96.12
1303.00,96.11
1302.00,96.10
1301.00,96.09
1300.00,96.08
1299.00,96.06
1298.00,96.04
1297.00,96.01
1296.00,95.97
1295.00,95.91
1294.00,95.86
1293.00,95.82
1292.00,95.79
1291.00,95.78
1290.00,95.78
1289.00,95.79
1288.00,95.80
1287.00,95.81
1286.00,95.80
1285.00,95.77
1284.00,95.74
1283.00,95.69
1282.00,95.64
1281.00,95.59
1280.00,95.54
1279.00,95.49
1278.00,95.44
1277.00,95.39
1276.00,95.33
1275.00,95.27
1274.00,95.19
1273.00,95.09
1272.00,94.97
1271.00,94.82
1270.00,94.66
1269.00,94.47
1268.00,94.25
1267.00,94.04
1266.00,93.83
1265.00,93.66
1264.00,93.52
1263.00,93.43
1262.00,93.39
1261.00,93.40
1260.00,93.44
1259.00,93.52
1258.00,93.63
1257.00,93.75
1256.00,93.88
1255.00,94.01
1254.00,94.14
1253.00,94.26
1252.00,94.38
1251.00,94.48
1250.00,94.58
1249.00,94.67
1248.00,94.74
1247.00,94.81
1246.00,94.86
1245.00,94.89
1244.00,94.91
1243.00,94.91
1242.00,94.91
1241.00,94.90
1240.00,94.89
1239.00,94.90
1238.00,94.92
1237.00,94.96
1236.00,95.02
1235.00,95.11
1234.00,95.21
1233.00,95.32
1232.00,95.45
1231.00,95.57
1230.00,95.69
1229.00,95.81
1228.00,95.93
1227.00,96.03
1226.00,96.13
1225.00,96.21
1224.00,96.27
1223.00,96.31
1222.00,96.33
1221.00,96.32
1220.00,96.29
1219.00,96.24
1218.00,96.17
1217.00,96.10
1216.00,96.02
1215.00,95.96
1214.00,95.91
1213.00,95.87
1212.00,95.85
1211.00,95.82
1210.00,95.80
1209.00,95.75
1208.00,95.68
1207.00,95.57
1206.00,95.41
1205.00,95.21
1204.00,94.97
1203.00,94.71
1202.00,94.46
1201.00,94.24
1200.00,94.11
1199.00,94.06
1198.00,94.09
1197.00,94.20
1196.00,94.34
1195.00,94.49
1194.00,94.66
1193.00,94.83
1192.00,94.99
1191.00,95.15
1190.00,95.30
1189.00,95.44
1188.00,95.56
1187.00,95.66
1186.00,95.74
1185.00,95.80
1184.00,95.84
1183.00,95.87
1182.00,95.88
1181.00,95.88
1180.00,95.87
1179.00,95.83
1178.00,95.78
1177.00,95.71
1176.00,95.64
1175.00,95.56
1174.00,95.49
1173.00,95.42
1172.00,95.37
1171.00,95.33
1170.00,95.32
1169.00,95.35
1168.00,95.41
1167.00,95.48
1166.00,95.58
1165.00,95.69
1164.00,95.80
1163.00,95.92
1162.00,96.03
1161.00,96.13
1160.00,96.23
1159.00,96.33
1158.00,96.42
1157.00,96.50
1156.00,96.58
1155.00,96.65
1154.00,96.72
1153.00,96.79
1152.00,96.84
1151.00,96.88
1150.00,96.92
1149.00,96.96
1148.00,97.00
1147.00,97.04
1146.00,97.07
1145.00,97.11
1144.00,97.14
1143.00,97.16
1142.00,97.19
1141.00,97.21
1140.00,97.23
1139.00,97.25
1138.00,97.27
1137.00,97.28
1136.00,97.28
1135.00,97.28
1134.00,97.28
1133.00,97.26
1132.00,97.21
1131.00,97.15
1130.00,97.07
1129.00,96.97
1128.00,96.87
1127.00,96.77
1126.00,96.68
1125.00,96.60
1124.00,96.53
1123.00,96.49
1122.00,96.47
1121.00,96.47
1120.00,96.49
1119.00,96.51
1118.00,96.53
1117.00,96.56
1116.00,96.59
1115.00,96.62
1114.00,96.66
1113.00,96.69
1112.00,96.71
1111.00,96.73
1110.00,96.75
1109.00,96.78
1108.00,96.81
1107.00,96.85
1106.00,96.88
1105.00,96.89
1104.00,96.91
1103.00,96.93
1102.00,96.95
1101.00,96.98
1100.00,97.00
1099.00,97.01
1098.00,97.01
1097.00,97.01
1096.00,97.01
1095.00,97.01
1094.00,97.03
1093.00,97.04
1092.00,97.05
1091.00,97.06
1090.00,97.07
1089.00,97.09
1088.00,97.09
1087.00,97.09
1086.00,97.09
1085.00,97.09
1084.00,97.08
1083.00,97.08
1082.00,97.08
1081.00,97.08
1080.00,97.07
1079.00,97.06
1078.00,97.05
1077.00,97.04
1076.00,97.03
1075.00,97.03
1074.00,97.04
1073.00,97.05
1072.00,97.06
1071.00,97.07
1070.00,97.09
1069.00,97.11
1068.00,97.13
1067.00,97.15
1066.00,97.17
1065.00,97.19
1064.00,97.21
1063.00,97.23
1062.00,97.25
1061.00,97.27
1060.00,97.29
1059.00,97.31
1058.00,97.32
1057.00,97.34
1056.00,97.36
1055.00,97.38
1054.00,97.40
1053.00,97.42
1052.00,97.43
1051.00,97.44
1050.00,97.45
1049.00,97.46
1048.00,97.46
1047.00,97.47
1046.00,97.47
1045.00,97.48
1044.00,97.48
1043.00,97.48
1042.00,97.47
1041.00,97.46
1040.00,97.46
1039.00,97.45
1038.00,97.44
1037.00,97.43
1036.00,97.43
1035.00,97.42
1034.00,97.41
1033.00,97.40
1032.00,97.40
1031.00,97.40
1030.00,97.40
1029.00,97.42
1028.00,97.43
1027.00,97.45
1026.00,97.47
1025.00,97.50
1024.00,97.52
1023.00,97.55
1022.00,97.57
1021.00,97.59
1020.00,97.61
1019.00,97.62
1018.00,97.63
1017.00,97.64
1016.00,97.66
1015.00,97.68
1014.00,97.70
1013.00,97.72
1012.00,97.74
1011.00,97.77
1010.00,97.80
1009.00,97.83
1008.00,97.87
1007.00,97.91
1006.00,97.94
1005.00,97.96
1004.00,97.98
1003.00,98.00
1002.00,98.01
1001.00,98.02
1000.00,98.03
999.00,98.04
998.00,98.05
997.00,98.06
996.00,98.07
995.00,98.07
994.00,98.06
993.00,98.06
992.00,98.05
991.00,98.04
990.00,98.03
989.00,98.02
988.00,98.01
987.00,98.00
986.00,98.00
985.00,97.98
984.00,97.97
983.00,97.97
982.00,97.97
981.00,97.98
980.00,98.00
979.00,98.01
978.00,98.01
977.00,98.02
976.00,98.02
975.00,98.02
974.00,98.02
973.00,98.01
972.00,98.00
971.00,97.99
970.00,97.99
969.00,97.99
968.00,98.00
967.00,98.00
966.00,97.99
965.00,97.98
964.00,97.96
963.00,97.94
962.00,97.91
961.00,97.89
960.00,97.87
959.00,97.87
958.00,97.88
957.00,97.91
956.00,97.94
955.00,97.96
954.00,97.96
953.00,97.96
952.00,97.96
951.00,97.96
950.00,97.99
949.00,98.01
948.00,98.04
947.00,98.07
946.00,98.10
945.00,98.13
944.00,98.16
943.00,98.18
942.00,98.19
941.00,98.19
940.00,98.18
939.00,98.16
938.00,98.13
937.00,98.09
936.00,98.05
935.00,97.99
934.00,97.93
933.00,97.85
932.00,97.76
931.00,97.67
930.00,97.60
929.00,97.55
928.00,97.54
927.00,97.56
926.00,97.62
925.00,97.70
924.00,97.79
923.00,97.88
922.00,97.96
921.00,98.03
920.00,98.09
919.00,98.14
918.00,98.17
917.00,98.20
916.00,98.23
915.00,98.26
914.00,98.29
913.00,98.31
912.00,98.33
911.00,98.33
910.00,98.33
909.00,98.34
908.00,98.35
907.00,98.37
906.00,98.39
905.00,98.39
904.00,98.40
903.00,98.40
902.00,98.42
901.00,98.44
900.00,98.46
899.00,98.47
898.00,98.47
897.00,98.48
896.00,98.48
895.00,98.49
894.00,98.49
893.00,98.49
892.00,98.49
891.00,98.49
890.00,98.49
889.00,98.49
888.00,98.49
887.00,98.49
886.00,98.49
885.00,98.49
884.00,98.49
883.00,98.50
882.00,98.50
881.00,98.52
880.00,98.53
879.00,98.54
878.00,98.55
877.00,98.55
876.00,98.54
875.00,98.52
874.00,98.52
873.00,98.52
872.00,98.53
871.00,98.54
870.00,98.54
869.00,98.55
868.00,98.55
867.00,98.56
866.00,98.57
865.00,98.58
864.00,98.57
863.00,98.56
862.00,98.55
861.00,98.55
860.00,98.55
859.00,98.54
858.00,98.54
857.00,98.53
856.00,98.52
855.00,98.51
854.00,98.50
853.00,98.51
852.00,98.51
851.00,98.52
850.00,98.51
849.00,98.50
848.00,98.49
847.00,98.47
846.00,98.46
845.00,98.45
844.00,98.43
843.00,98.41
842.00,98.39
841.00,98.37
840.00,98.34
839.00,98.31
838.00,98.27
837.00,98.23
836.00,98.17
835.00,98.12
834.00,98.07
833.00,98.04
832.00,98.03
831.00,98.03
830.00,98.04
829.00,98.04
828.00,98.03
827.00,98.02
826.00,98.01
825.00,98.00
824.00,97.99
823.00,97.99
822.00,97.98
821.00,97.98
820.00,97.97
819.00,97.98
818.00,97.98
817.00,97.99
816.00,97.99
815.00,97.98
814.00,97.97
813.00,97.95
812.00,97.93
811.00,97.90
810.00,97.88
809.00,97.87
808.00,97.85
807.00,97.84
806.00,97.82
805.00,97.80
804.00,97.78
803.00,97.76
802.00,97.73
801.00,97.71
800.00,97.68
799.00,97.64
798.00,97.62
797.00,97.60
796.00,97.59
795.00,97.59
794.00,97.60
793.00,97.61
792.00,97.62
791.00,97.63
790.00,97.63
789.00,97.63
788.00,97.63
787.00,97.63
786.00,97.62
785.00,97.61
784.00,97.59
783.00,97.56
782.00,97.55
781.00,97.55
780.00,97.54
779.00,97.52
778.00,97.50
777.00,97.48
776.00,97.46
775.00,97.44
774.00,97.42
773.00,97.41
772.00,97.39
771.00,97.37
770.00,97.35
769.00,97.34
768.00,97.32
767.00,97.30
766.00,97.28
765.00,97.26
764.00,97.23
763.00,97.19
762.00,97.16
761.00,97.13
760.00,97.11
759.00,97.08
758.00,97.06
757.00,97.02
756.00,96.98
755.00,96.94
754.00,96.90
753.00,96.87
752.00,96.84
751.00,96.81
750.00,96.79
749.00,96.76
748.00,96.74
747.00,96.71
746.00,96.67
745.00,96.63
744.00,96.58
743.00,96.53
742.00,96.48
741.00,96.41
740.00,96.34
739.00,96.25
738.00,96.16
737.00,96.06
736.00,95.93
735.00,95.78
734.00,95.63
733.00,95.47
732.00,95.31
731.00,95.17
730.00,95.07
729.00,95.03
728.00,95.03
727.00,95.07
726.00,95.12
725.00,95.16
724.00,95.20
723.00,95.22
722.00,95.22
721.00,95.21
720.00,95.20
719.00,95.18
718.00,95.14
717.00,95.10
716.00,95.06
715.00,95.03
714.00,95.00
713.00,94.97
712.00,94.94
711.00,94.91
710.00,94.87
709.00,94.84
708.00,94.81
707.00,94.77
706.00,94.74
705.00,94.70
704.00,94.66
703.00,94.62
702.00,94.56
701.00,94.50
700.00,94.44
699.00,94.37
698.00,94.31
697.00,94.23
696.00,94.15
695.00,94.07
694.00,93.98
693.00,93.90
692.00,93.83
691.00,93.77
690.00,93.71
689.00,93.66
688.00,93.61
687.00,93.57
686.00,93.54
685.00,93.53
684.00,93.52
683.00,93.51
682.00,93.51
681.00,93.52
680.00,93.53
679.00,93.55
678.00,93.59
677.00,93.63
676.00,93.67
675.00,93.71
674.00,93.76
673.00,93.83
672.00,93.92
671.00,94.04
670.00,94.22
669.00,94.47
668.00,94.68
667.00,94.67
666.00,94.55
665.00,94.45
664.00,94.40
663.00,94.42
662.00,94.48
661.00,94.54
660.00,94.59
659.00,94.63
658.00,94.67
657.00,94.72
656.00,94.76
655.00,94.81
654.00,94.86
653.00,94.91
652.00,94.95
651.00,94.99
650.00,95.04
649.00,95.08
648.00,95.12
647.00,95.16
646.00,95.19
645.00,95.22
644.00,95.23
643.00,95.24
642.00,95.26
641.00,95.28
640.00,95.31
639.00,95.35
638.00,95.39
637.00,95.41
636.00,95.41
635.00,95.41
634.00,95.40
633.00,95.38
632.00,95.37
631.00,95.37
630.00,95.37
629.00,95.38
628.00,95.37
627.00,95.37
626.00,95.36
625.00,95.35
624.00,95.37
623.00,95.39
622.00,95.42
621.00,95.44
620.00,95.45
619.00,95.44
618.00,95.42
617.00,95.40
616.00,95.39
615.00,95.41
614.00,95.44
613.00,95.47
612.00,95.49
611.00,95.48
610.00,95.45
609.00,95.42
608.00,95.40
607.00,95.39
606.00,95.39
605.00,95.39
604.00,95.39
603.00,95.39
602.00,95.37
601.00,95.33
600.00,95.30
599.00,95.27
598.00,95.25
597.00,95.22
596.00,95.17
595.00,95.12
594.00,95.07
593.00,95.01
592.00,94.96
591.00,94.91
590.00,94.85
589.00,94.76
588.00,94.66
587.00,94.57
586.00,94.48
585.00,94.40
584.00,94.31
583.00,94.21
582.00,94.11
581.00,94.02
580.00,93.93
579.00,93.85
578.00,93.79
577.00,93.73
576.00,93.70
575.00,93.71
574.00,93.74
573.00,93.78
572.00,93.83
571.00,93.91
570.00,94.00
569.00,94.09
568.00,94.18
567.00,94.26
566.00,94.34
565.00,94.43
564.00,94.53
563.00,94.65
562.00,94.75
561.00,94.83
560.00,94.89
559.00,94.93
558.00,94.98
557.00,95.02
556.00,95.07
555.00,95.13
554.00,95.17
553.00,95.19
552.00,95.21
551.00,95.22
550.00,95.26
549.00,95.30
548.00,95.33
547.00,95.34
546.00,95.34
545.00,95.35
544.00,95.38
543.00,95.42
542.00,95.44
541.00,95.43
540.00,95.38
539.00,95.34
538.00,95.30
537.00,95.28
536.00,95.29
535.00,95.32
534.00,95.36
533.00,95.38
532.00,95.39
531.00,95.37
530.00,95.35
529.00,95.32
528.00,95.26
527.00,95.15
526.00,95.03
525.00,94.92
524.00,94.86
523.00,94.84
522.00,94.83
521.00,94.84
520.00,94.84
519.00,94.84
518.00,94.84
517.00,94.86
516.00,94.89
515.00,94.94
514.00,94.99
513.00,95.04
512.00,95.07
511.00,95.11
510.00,95.14
509.00,95.19
508.00,95.21
507.00,95.22
506.00,95.21
505.00,95.22
504.00,95.24
503.00,95.29
502.00,95.33
501.00,95.38
500.00,95.43
499.00,95.46
498.00,95.47
497.00,95.47
496.00,95.47
495.00,95.46
494.00,95.49
493.00,95.55
492.00,95.62
491.00,95.69
490.00,95.72
489.00,95.73
488.00,95.73
487.00,95.74
486.00,95.76
485.00,95.78
484.00,95.81
483.00,95.85
482.00,95.89
481.00,95.94
480.00,95.97
479.00,95.99
478.00,95.98
477.00,95.95
476.00,95.90
475.00,95.84
474.00,95.78
473.00,95.74
472.00,95.75
471.00,95.81
470.00,95.86
469.00,95.91
468.00,95.99
467.00,96.10
466.00,96.21
465.00,96.28
464.00,96.28
463.00,96.23
462.00,96.15
461.00,96.08
460.00,96.08
459.00,96.16
458.00,96.25
457.00,96.28
456.00,96.23
455.00,96.17
454.00,96.13
453.00,96.13
452.00,96.16
451.00,96.17
450.00,96.16
449.00,96.11
448.00,96.01
447.00,95.89
446.00,95.78
445.00,95.71
444.00,95.72
443.00,95.82
442.00,95.96
441.00,96.12
440.00,96.24
439.00,96.32
438.00,96.34
437.00,96.36
436.00,96.40
435.00,96.47
434.00,96.52
433.00,96.53
432.00,96.52
431.00,96.55
430.00,96.60
429.00,96.60
428.00,96.57
427.00,96.54
426.00,96.54
425.00,96.54
424.00,96.56
423.00,96.60
422.00,96.64
421.00,96.65
420.00,96.59
419.00,96.57
418.00,96.65
417.00,96.76
416.00,96.78
415.00,96.73
414.00,96.66
413.00,96.60
412.00,96.57
411.00,96.58
410.00,96.65
409.00,96.78
408.00,96.95
407.00,97.05
406.00,97.00
405.00,96.83
404.00,96.66
403.00,96.56
402.00,96.52
401.00,96.45
400.00,96.34
