Created as New Dataset,Sample 719 By Administrator Date Monday, September 21 2026
cm-1,%T
4000.00,96.91
3999.00,96.91
3998.00,96.91
3997.00,96.91
3996.00,96.91
3995.00,96.91
3994.00,96.91
3993.00,96.91
3992.00,96.91
3991.00,96.92
3990.00,96.92
3989.00,96.93
3988.00,96.93
3987.00,96.94
3986.00,96.94
3985.00,96.94
3984.00,96.94
3983.00,96.94
3982.00,96.94
3981.00,96.93
3980.00,96.93
3979.00,96.93
3978.00,96.92
3977.00,96.92
3976.00,96.92
3975.00,96.92
3974.00,96.93
3973.00,96.93
3972.00,96.94
3971.00,96.94
3970.00,96.94
3969.00,96.93
3968.00,96.93
3967.00,96.94
3966.00,96.94
3965.00,96.94
3964.00,96.94
3963.00,96.94
3962.00,96.94
3961.00,96.94
3960.00,96.94
3959.00,96.95
3958.00,96.94
3957.00,96.94
3956.00,96.94
3955.00,96.94
3954.00,96.94
3953.00,96.94
3952.00,96.94
3951.00,96.94
3950.00,96.93
3949.00,96.94
3948.00,96.94
3947.00,96.94
3946.00,96.94
3945.00,96.94
3944.00,96.95
3943.00,96.95
3942.00,96.96
3941.00,96.96
3940.00,96.96
3939.00,96.96
3938.00,96.95
3937.00,96.95
3936.00,96.95
3935.00,96.94
3934.00,96.94
3933.00,96.93
3932.00,96.93
3931.00,96.93
3930.00,96.94
3929.00,96.95
3928.00,96.95
3927.00,96.96
3926.00,96.97
3925.00,96.98
3924.00,96.98
3923.00,96.97
3922.00,96.97
3921.00,96.96
3920.00,96.96
3919.00,96.96
3918.00,96.96
3917.00,96.96
3916.00,96.96
3915.00,96.97
3914.00,96.97
3913.00,96.98
3912.00,96.98
3911.00,96.99
3910.00,96.99
3909.00,96.99
3908.00,96.98
3907.00,96.98
3906.00,96.97
3905.00,96.97
3904.00,96.97
3903.00,96.98
3902.00,96.98
3901.00,96.98
3900.00,96.98
3899.00,96.98
3898.00,96.98
3897.00,96.98
3896.00,96.98
3895.00,96.99
3894.00,96.99
3893.00,97.00
3892.00,97.00
3891.00,97.00
3890.00,97.01
3889.00,97.00
3888.00,96.99
3887.00,96.98
3886.00,96.98
3885.00,96.99
3884.00,96.99
3883.00,97.00
3882.00,97.00
3881.00,97.00
3880.00,97.00
3879.00,97.00
3878.00,97.00
3877.00,97.00
3876.00,97.00
3875.00,97.00
3874.00,96.99
3873.00,96.99
3872.00,96.98
3871.00,96.99
3870.00,96.99
3869.00,97.00
3868.00,97.00
3867.00,97.00
3866.00,97.00
3865.00,97.00
3864.00,97.00
3863.00,97.01
3862.00,97.00
3861.00,97.00
3860.00,97.00
3859.00,97.00
3858.00,97.00
3857.00,97.01
3856.00,97.02
3855.00,97.02
3854.00,97.03
3853.00,97.05
3852.00,97.05
3851.00,97.06
3850.00,97.06
3849.00,97.05
3848.00,97.05
3847.00,97.05
3846.00,97.04
3845.00,97.04
3844.00,97.04
3843.00,97.04
3842.00,97.05
3841.00,97.05
3840.00,97.05
3839.00,97.05
3838.00,97.05
3837.00,97.05
3836.00,97.05
3835.00,97.06
3834.00,97.06
3833.00,97.07
3832.00,97.07
3831.00,97.08
3830.00,97.08
3829.00,97.08
3828.00,97.07
3827.00,97.07
3826.00,97.06
3825.00,97.06
3824.00,97.05
3823.00,97.04
3822.00,97.04
3821.00,97.05
3820.00,97.06
3819.00,97.06
3818.00,97.06
3817.00,97.07
3816.00,97.08
3815.00,97.09
3814.00,97.09
3813.00,97.09
3812.00,97.09
3811.00,97.08
3810.00,97.08
3809.00,97.08
3808.00,97.08
3807.00,97.08
3806.00,97.09
3805.00,97.09
3804.00,97.09
3803.00,97.09
3802.00,97.10
3801.00,97.10
3800.00,97.10
3799.00,97.10
3798.00,97.10
3797.00,97.10
3796.00,97.11
3795.00,97.11
3794.00,97.11
3793.00,97.10
3792.00,97.09
3791.00,97.09
3790.00,97.09
3789.00,97.09
3788.00,97.09
3787.00,97.09
3786.00,97.09
3785.00,97.10
3784.00,97.10
3783.00,97.11
3782.00,97.11
3781.00,97.11
3780.00,97.12
3779.00,97.12
3778.00,97.12
3777.00,97.12
3776.00,97.11
3775.00,97.11
3774.00,97.11
3773.00,97.11
3772.00,97.10
3771.00,97.10
3770.00,97.10
3769.00,97.10
3768.00,97.10
3767.00,97.11
3766.00,97.11
3765.00,97.12
3764.00,97.12
3763.00,97.12
3762.00,97.11
3761.00,97.11
3760.00,97.11
3759.00,97.11
3758.00,97.12
3757.00,97.12
3756.00,97.12
3755.00,97.11
3754.00,97.11
3753.00,97.10
3752.00,97.09
3751.00,97.09
3750.00,97.08
3749.00,97.08
3748.00,97.08
3747.00,97.09
3746.00,97.10
3745.00,97.11
3744.00,97.12
3743.00,97.13
3742.00,97.13
3741.00,97.12
3740.00,97.11
3739.00,97.10
3738.00,97.09
3737.00,97.09
3736.00,97.09
3735.00,97.11
3734.00,97.14
3733.00,97.16
3732.00,97.17
3731.00,97.17
3730.00,97.16
3729.00,97.15
3728.00,97.13
3727.00,97.11
3726.00,97.11
3725.00,97.11
3724.00,97.12
3723.00,97.13
3722.00,97.14
3721.00,97.14
3720.00,97.14
3719.00,97.14
3718.00,97.14
3717.00,97.14
3716.00,97.13
3715.00,97.13
3714.00,97.12
3713.00,97.12
3712.00,97.11
3711.00,97.11
3710.00,97.12
3709.00,97.13
3708.00,97.14
3707.00,97.15
3706.00,97.16
3705.00,97.16
3704.00,97.16
3703.00,97.16
3702.00,97.16
3701.00,97.16
3700.00,97.15
3699.00,97.14
3698.00,97.12
3697.00,97.11
3696.00,97.11
3695.00,97.10
3694.00,97.10
3693.00,97.09
3692.00,97.09
3691.00,97.10
3690.00,97.11
3689.00,97.10
3688.00,97.09
3687.00,97.08
3686.00,97.07
3685.00,97.05
3684.00,97.04
3683.00,97.02
3682.00,97.01
3681.00,97.00
3680.00,96.99
3679.00,96.99
3678.00,96.98
3677.00,96.97
3676.00,96.96
3675.00,96.95
3674.00,96.93
3673.00,96.91
3672.00,96.90
3671.00,96.88
3670.00,96.86
3669.00,96.84
3668.00,96.82
3667.00,96.80
3666.00,96.78
3665.00,96.76
3664.00,96.74
3663.00,96.72
3662.00,96.68
3661.00,96.65
3660.00,96.63
3659.00,96.61
3658.00,96.58
3657.00,96.55
3656.00,96.52
3655.00,96.49
3654.00,96.47
3653.00,96.45
3652.00,96.43
3651.00,96.39
3650.00,96.35
3649.00,96.31
3648.00,96.26
3647.00,96.23
3646.00,96.20
3645.00,96.17
3644.00,96.15
3643.00,96.13
3642.00,96.11
3641.00,96.08
3640.00,96.06
3639.00,96.02
3638.00,95.98
3637.00,95.94
3636.00,95.90
3635.00,95.86
3634.00,95.82
3633.00,95.80
3632.00,95.78
3631.00,95.75
3630.00,95.69
3629.00,95.62
3628.00,95.56
3627.00,95.52
3626.00,95.50
3625.00,95.48
3624.00,95.47
3623.00,95.45
3622.00,95.43
3621.00,95.40
3620.00,95.36
3619.00,95.31
3618.00,95.25
3617.00,95.21
3616.00,95.17
3615.00,95.13
3614.00,95.09
3613.00,95.03
3612.00,94.99
3611.00,94.95
3610.00,94.92
3609.00,94.88
3608.00,94.85
3607.00,94.82
3606.00,94.79
3605.00,94.78
3604.00,94.76
3603.00,94.74
3602.00,94.71
3601.00,94.67
3600.00,94.64
3599.00,94.60
3598.00,94.57
3597.00,94.54
3596.00,94.50
3595.00,94.46
3594.00,94.43
3593.00,94.40
3592.00,94.38
3591.00,94.37
3590.00,94.35
3589.00,94.33
3588.00,94.29
3587.00,94.23
3586.00,94.18
3585.00,94.15
3584.00,94.12
3583.00,94.10
3582.00,94.09
3581.00,94.07
3580.00,94.05
3579.00,94.02
3578.00,94.00
3577.00,93.97
3576.00,93.94
3575.00,93.91
3574.00,93.88
3573.00,93.86
3572.00,93.84
3571.00,93.83
3570.00,93.81
3569.00,93.78
3568.00,93.73
3567.00,93.66
3566.00,93.61
3565.00,93.56
3564.00,93.53
3563.00,93.51
3562.00,93.49
3561.00,93.47
3560.00,93.45
3559.00,93.43
3558.00,93.41
3557.00,93.38
3556.00,93.36
3555.00,93.34
3554.00,93.31
3553.00,93.27
3552.00,93.25
3551.00,93.22
3550.00,93.20
3549.00,93.18
3548.00,93.16
3547.00,93.12
3546.00,93.09
3545.00,93.07
3544.00,93.05
3543.00,93.03
3542.00,93.01
3541.00,93.00
3540.00,92.98
3539.00,92.96
3538.00,92.95
3537.00,92.92
3536.00,92.90
3535.00,92.87
3534.00,92.85
3533.00,92.84
3532.00,92.82
3531.00,92.80
3530.00,92.78
3529.00,92.75
3528.00,92.72
3527.00,92.69
3526.00,92.66
3525.00,92.64
3524.00,92.62
3523.00,92.61
3522.00,92.59
3521.00,92.58
3520.00,92.57
3519.00,92.55
3518.00,92.53
3517.00,92.50
3516.00,92.48
3515.00,92.46
3514.00,92.44
3513.00,92.43
3512.00,92.41
3511.00,92.38
3510.00,92.35
3509.00,92.32
3508.00,92.30
3507.00,92.29
3506.00,92.28
3505.00,92.26
3504.00,92.24
3503.00,92.20
3502.00,92.17
3501.00,92.15
3500.00,92.14
3499.00,92.14
3498.00,92.12
3497.00,92.11
3496.00,92.08
3495.00,92.06
3494.00,92.04
3493.00,92.02
3492.00,92.01
3491.00,91.99
3490.00,91.97
3489.00,91.96
3488.00,91.94
3487.00,91.91
3486.00,91.90
3485.00,91.88
3484.00,91.87
3483.00,91.86
3482.00,91.84
3481.00,91.82
3480.00,91.80
3479.00,91.78
3478.00,91.77
3477.00,91.75
3476.00,91.73
3475.00,91.72
3474.00,91.70
3473.00,91.68
3472.00,91.67
3471.00,91.65
3470.00,91.64
3469.00,91.62
3468.00,91.60
3467.00,91.58
3466.00,91.57
3465.00,91.55
3464.00,91.55
3463.00,91.54
3462.00,91.53
3461.00,91.52
3460.00,91.51
3459.00,91.51
3458.00,91.50
3457.00,91.48
3456.00,91.47
3455.00,91.45
3454.00,91.44
3453.00,91.43
3452.00,91.42
3451.00,91.42
3450.00,91.41
3449.00,91.40
3448.00,91.39
3447.00,91.37
3446.00,91.35
3445.00,91.34
3444.00,91.34
3443.00,91.33
3442.00,91.33
3441.00,91.32
3440.00,91.31
3439.00,91.31
3438.00,91.30
3437.00,91.30
3436.00,91.29
3435.00,91.29
3434.00,91.28
3433.00,91.28
3432.00,91.28
3431.00,91.27
3430.00,91.27
3429.00,91.26
3428.00,91.25
3427.00,91.25
3426.00,91.24
3425.00,91.24
3424.00,91.24
3423.00,91.24
3422.00,91.23
3421.00,91.22
3420.00,91.21
3419.00,91.21
3418.00,91.21
3417.00,91.21
3416.00,91.22
3415.00,91.23
3414.00,91.23
3413.00,91.24
3412.00,91.24
3411.00,91.25
3410.00,91.25
3409.00,91.25
3408.00,91.25
3407.00,91.25
3406.00,91.25
3405.00,91.25
3404.00,91.25
3403.00,91.25
3402.00,91.26
3401.00,91.26
3400.00,91.26
3399.00,91.26
3398.00,91.26
3397.00,91.26
3396.00,91.27
3395.00,91.28
3394.00,91.29
3393.00,91.30
3392.00,91.30
3391.00,91.31
3390.00,91.32
3389.00,91.33
3388.00,91.34
3387.00,91.35
3386.00,91.36
3385.00,91.37
3384.00,91.37
3383.00,91.38
3382.00,91.39
3381.00,91.40
3380.00,91.40
3379.00,91.42
3378.00,91.43
3377.00,91.44
3376.00,91.45
3375.00,91.46
3374.00,91.46
3373.00,91.47
3372.00,91.48
3371.00,91.49
3370.00,91.49
3369.00,91.50
3368.00,91.51
3367.00,91.52
3366.00,91.53
3365.00,91.54
3364.00,91.54
3363.00,91.55
3362.00,91.57
3361.00,91.58
3360.00,91.60
3359.00,91.62
3358.00,91.63
3357.00,91.64
3356.00,91.65
3355.00,91.67
3354.00,91.68
3353.00,91.70
3352.00,91.71
3351.00,91.73
3350.00,91.74
3349.00,91.76
3348.00,91.77
3347.00,91.78
3346.00,91.80
3345.00,91.82
3344.00,91.84
3343.00,91.85
3342.00,91.87
3341.00,91.89
3340.00,91.91
3339.00,91.93
3338.00,91.95
3337.00,91.96
3336.00,91.97
3335.00,91.98
3334.00,91.99
3333.00,92.00
3332.00,92.01
3331.00,92.03
3330.00,92.05
3329.00,92.07
3328.00,92.09
3327.00,92.10
3326.00,92.12
3325.00,92.13
3324.00,92.15
3323.00,92.16
3322.00,92.18
3321.00,92.20
3320.00,92.21
3319.00,92.22
3318.00,92.23
3317.00,92.25
3316.00,92.28
3315.00,92.30
3314.00,92.32
3313.00,92.34
3312.00,92.35
3311.00,92.37
3310.00,92.39
3309.00,92.40
3308.00,92.42
3307.00,92.44
3306.00,92.45
3305.00,92.47
3304.00,92.48
3303.00,92.48
3302.00,92.49
3301.00,92.50
3300.00,92.52
3299.00,92.54
3298.00,92.55
3297.00,92.57
3296.00,92.58
3295.00,92.60
3294.00,92.61
3293.00,92.63
3292.00,92.65
3291.00,92.67
3290.00,92.67
3289.00,92.68
3288.00,92.69
3287.00,92.69
3286.00,92.70
3285.00,92.71
3284.00,92.72
3283.00,92.73
3282.00,92.75
3281.00,92.76
3280.00,92.78
3279.00,92.80
3278.00,92.81
3277.00,92.83
3276.00,92.84
3275.00,92.85
3274.00,92.87
3273.00,92.89
3272.00,92.90
3271.00,92.92
3270.00,92.93
3269.00,92.93
3268.00,92.94
3267.00,92.95
3266.00,92.97
3265.00,92.99
3264.00,93.00
3263.00,93.02
3262.00,93.04
3261.00,93.05
3260.00,93.07
3259.00,93.08
3258.00,93.10
3257.00,93.11
3256.00,93.13
3255.00,93.15
3254.00,93.16
3253.00,93.18
3252.00,93.20
3251.00,93.21
3250.00,93.23
3249.00,93.25
3248.00,93.27
3247.00,93.29
3246.00,93.30
3245.00,93.32
3244.00,93.33
3243.00,93.34
3242.00,93.36
3241.00,93.37
3240.00,93.39
3239.00,93.41
3238.00,93.43
3237.00,93.45
3236.00,93.48
3235.00,93.50
3234.00,93.52
3233.00,93.54
3232.00,93.55
3231.00,93.56
3230.00,93.57
3229.00,93.59
3228.00,93.60
3227.00,93.62
3226.00,93.64
3225.00,93.66
3224.00,93.68
3223.00,93.69
3222.00,93.71
3221.00,93.72
3220.00,93.74
3219.00,93.76
3218.00,93.78
3217.00,93.80
3216.00,93.82
3215.00,93.83
3214.00,93.85
3213.00,93.87
3212.00,93.89
3211.00,93.91
3210.00,93.93
3209.00,93.96
3208.00,93.98
3207.00,94.00
3206.00,94.02
3205.00,94.04
3204.00,94.05
3203.00,94.07
3202.00,94.09
3201.00,94.11
3200.00,94.13
3199.00,94.14
3198.00,94.16
3197.00,94.18
3196.00,94.20
3195.00,94.22
3194.00,94.25
3193.00,94.27
3192.00,94.29
3191.00,94.30
3190.00,94.32
3189.00,94.34
3188.00,94.36
3187.00,94.38
3186.00,94.40
3185.00,94.41
3184.00,94.43
3183.00,94.44
3182.00,94.46
3181.00,94.48
3180.00,94.51
3179.00,94.54
3178.00,94.56
3177.00,94.58
3176.00,94.59
3175.00,94.60
3174.00,94.62
3173.00,94.65
3172.00,94.67
3171.00,94.69
3170.00,94.70
3169.00,94.72
3168.00,94.74
3167.00,94.76
3166.00,94.78
3165.00,94.79
3164.00,94.81
3163.00,94.82
3162.00,94.83
3161.00,94.85
3160.00,94.87
3159.00,94.90
3158.00,94.92
3157.00,94.93
3156.00,94.94
3155.00,94.96
3154.00,94.98
3153.00,94.99
3152.00,95.01
3151.00,95.02
3150.00,95.04
3149.00,95.05
3148.00,95.06
3147.00,95.07
3146.00,95.08
3145.00,95.09
3144.00,95.10
3143.00,95.12
3142.00,95.14
3141.00,95.16
3140.00,95.18
3139.00,95.20
3138.00,95.21
3137.00,95.22
3136.00,95.23
3135.00,95.24
3134.00,95.25
3133.00,95.26
3132.00,95.27
3131.00,95.28
3130.00,95.29
3129.00,95.30
3128.00,95.32
3127.00,95.33
3126.00,95.35
3125.00,95.37
3124.00,95.38
3123.00,95.40
3122.00,95.41
3121.00,95.43
3120.00,95.44
3119.00,95.45
3118.00,95.46
3117.00,95.47
3116.00,95.48
3115.00,95.49
3114.00,95.49
3113.00,95.49
3112.00,95.49
3111.00,95.50
3110.00,95.51
3109.00,95.52
3108.00,95.52
3107.00,95.53
3106.00,95.54
3105.00,95.55
3104.00,95.57
3103.00,95.58
3102.00,95.59
3101.00,95.59
3100.00,95.60
3099.00,95.61
3098.00,95.62
3097.00,95.63
3096.00,95.64
3095.00,95.65
3094.00,95.65
3093.00,95.66
3092.00,95.67
3091.00,95.68
3090.00,95.69
3089.00,95.69
3088.00,95.70
3087.00,95.70
3086.00,95.70
3085.00,95.71
3084.00,95.71
3083.00,95.72
3082.00,95.73
3081.00,95.73
3080.00,95.73
3079.00,95.74
3078.00,95.75
3077.00,95.75
3076.00,95.76
3075.00,95.77
3074.00,95.77
3073.00,95.78
3072.00,95.78
3071.00,95.79
3070.00,95.79
3069.00,95.80
3068.00,95.81
3067.00,95.81
3066.00,95.82
3065.00,95.82
3064.00,95.82
3063.00,95.83
3062.00,95.83
3061.00,95.84
3060.00,95.86
3059.00,95.87
3058.00,95.88
3057.00,95.89
3056.00,95.89
3055.00,95.90
3054.00,95.90
3053.00,95.91
3052.00,95.93
3051.00,95.94
3050.00,95.95
3049.00,95.95
3048.00,95.95
3047.00,95.95
3046.00,95.96
3045.00,95.96
3044.00,95.96
3043.00,95.96
3042.00,95.97
3041.00,95.97
3040.00,95.97
3039.00,95.96
3038.00,95.96
3037.00,95.97
3036.00,95.97
3035.00,95.97
3034.00,95.98
3033.00,95.98
3032.00,95.97
3031.00,95.96
3030.00,95.96
3029.00,95.95
3028.00,95.95
3027.00,95.95
3026.00,95.96
3025.00,95.96
3024.00,95.97
3023.00,95.98
3022.00,95.98
3021.00,95.99
3020.00,96.00
3019.00,96.01
3018.00,96.02
3017.00,96.02
3016.00,96.02
3015.00,96.03
3014.00,96.03
3013.00,96.03
3012.00,96.03
3011.00,96.02
3010.00,96.02
3009.00,96.01
3008.00,96.00
3007.00,96.00
3006.00,95.99
3005.00,95.98
3004.00,95.98
3003.00,95.97
3002.00,95.97
3001.00,95.95
3000.00,95.94
2999.00,95.93
2998.00,95.92
2997.00,95.90
2996.00,95.88
2995.00,95.86
2994.00,95.84
2993.00,95.81
2992.00,95.78
2991.00,95.75
2990.00,95.72
2989.00,95.69
2988.00,95.65
2987.00,95.62
2986.00,95.58
2985.00,95.53
2984.00,95.49
2983.00,95.44
2982.00,95.39
2981.00,95.33
2980.00,95.26
2979.00,95.20
2978.00,95.13
2977.00,95.04
2976.00,94.95
2975.00,94.86
2974.00,94.76
2973.00,94.65
2972.00,94.54
2971.00,94.42
2970.00,94.30
2969.00,94.16
2968.00,94.02
2967.00,93.89
2966.00,93.75
2965.00,93.63
2964.00,93.53
2963.00,93.43
2962.00,93.36
2961.00,93.29
2960.00,93.25
2959.00,93.21
2958.00,93.17
2957.00,93.15
2956.00,93.13
2955.00,93.12
2954.00,93.12
2953.00,93.11
2952.00,93.10
2951.00,93.09
2950.00,93.08
2949.00,93.05
2948.00,93.02
2947.00,92.97
2946.00,92.91
2945.00,92.84
2944.00,92.76
2943.00,92.67
2942.00,92.59
2941.00,92.49
2940.00,92.39
2939.00,92.28
2938.00,92.16
2937.00,92.04
2936.00,91.91
2935.00,91.78
2934.00,91.66
2933.00,91.53
2932.00,91.41
2931.00,91.30
2930.00,91.18
2929.00,91.07
2928.00,90.96
2927.00,90.87
2926.00,90.78
2925.00,90.71
2924.00,90.67
2923.00,90.65
2922.00,90.66
2921.00,90.70
2920.00,90.76
2919.00,90.86
2918.00,90.98
2917.00,91.12
2916.00,91.29
2915.00,91.47
2914.00,91.67
2913.00,91.89
2912.00,92.10
2911.00,92.30
2910.00,92.49
2909.00,92.66
2908.00,92.81
2907.00,92.94
2906.00,93.07
2905.00,93.19
2904.00,93.29
2903.00,93.40
2902.00,93.49
2901.00,93.58
2900.00,93.66
2899.00,93.74
2898.00,93.82
2897.00,93.89
2896.00,93.95
2895.00,94.01
2894.00,94.07
2893.00,94.13
2892.00,94.18
2891.00,94.23
2890.00,94.27
2889.00,94.32
2888.00,94.36
2887.00,94.40
2886.00,94.44
2885.00,94.48
2884.00,94.50
2883.00,94.52
2882.00,94.54
2881.00,94.54
2880.00,94.54
2879.00,94.54
2878.00,94.53
2877.00,94.51
2876.00,94.49
2875.00,94.46
2874.00,94.43
2873.00,94.40
2872.00,94.38
2871.00,94.37
2870.00,94.36
2869.00,94.36
2868.00,94.35
2867.00,94.34
2866.00,94.31
2865.00,94.28
2864.00,94.24
2863.00,94.20
2862.00,94.15
2861.00,94.09
2860.00,94.03
2859.00,93.95
2858.00,93.87
2857.00,93.79
2856.00,93.72
2855.00,93.64
2854.00,93.57
2853.00,93.51
2852.00,93.48
2851.00,93.48
2850.00,93.54
2849.00,93.67
2848.00,93.84
2847.00,94.05
2846.00,94.26
2845.00,94.47
2844.00,94.65
2843.00,94.82
2842.00,94.97
2841.00,95.11
2840.00,95.23
2839.00,95.34
2838.00,95.43
2837.00,95.50
2836.00,95.58
2835.00,95.64
2834.00,95.71
2833.00,95.77
2832.00,95.82
2831.00,95.87
2830.00,95.92
2829.00,95.96
2828.00,96.01
2827.00,96.05
2826.00,96.08
2825.00,96.11
2824.00,96.14
2823.00,96.16
2822.00,96.19
2821.00,96.21
2820.00,96.24
2819.00,96.26
2818.00,96.28
2817.00,96.29
2816.00,96.30
2815.00,96.31
2814.00,96.32
2813.00,96.34
2812.00,96.36
2811.00,96.38
2810.00,96.39
2809.00,96.40
2808.00,96.41
2807.00,96.42
2806.00,96.43
2805.00,96.44
2804.00,96.45
2803.00,96.46
2802.00,96.47
2801.00,96.48
2800.00,96.49
2799.00,96.50
2798.00,96.51
2797.00,96.51
2796.00,96.52
2795.00,96.53
2794.00,96.54
2793.00,96.55
2792.00,96.56
2791.00,96.57
2790.00,96.57
2789.00,96.58
2788.00,96.58
2787.00,96.58
2786.00,96.58
2785.00,96.59
2784.00,96.60
2783.00,96.60
2782.00,96.61
2781.00,96.61
2780.00,96.62
2779.00,96.63
2778.00,96.63
2777.00,96.64
2776.00,96.66
2775.00,96.67
2774.00,96.68
2773.00,96.68
2772.00,96.68
2771.00,96.68
2770.00,96.68
2769.00,96.68
2768.00,96.69
2767.00,96.69
2766.00,96.69
2765.00,96.70
2764.00,96.70
2763.00,96.70
2762.00,96.70
2761.00,96.71
2760.00,96.71
2759.00,96.71
2758.00,96.71
2757.00,96.71
2756.00,96.72
2755.00,96.72
2754.00,96.73
2753.00,96.74
2752.00,96.74
2751.00,96.75
2750.00,96.76
2749.00,96.76
2748.00,96.76
2747.00,96.75
2746.00,96.75
2745.00,96.75
2744.00,96.75
2743.00,96.75
2742.00,96.75
2741.00,96.75
2740.00,96.75
2739.00,96.75
2738.00,96.76
2737.00,96.76
2736.00,96.77
2735.00,96.77
2734.00,96.77
2733.00,96.78
2732.00,96.78
2731.00,96.78
2730.00,96.79
2729.00,96.79
2728.00,96.80
2727.00,96.81
2726.00,96.82
2725.00,96.82
2724.00,96.82
2723.00,96.82
2722.00,96.82
2721.00,96.82
2720.00,96.82
2719.00,96.83
2718.00,96.83
2717.00,96.84
2716.00,96.84
2715.00,96.84
2714.00,96.84
2713.00,96.84
2712.00,96.85
2711.00,96.85
2710.00,96.85
2709.00,96.85
2708.00,96.86
2707.00,96.86
2706.00,96.87
2705.00,96.87
2704.00,96.87
2703.00,96.88
2702.00,96.88
2701.00,96.88
2700.00,96.88
2699.00,96.88
2698.00,96.89
2697.00,96.90
2696.00,96.90
2695.00,96.90
2694.00,96.90
2693.00,96.90
2692.00,96.90
2691.00,96.90
2690.00,96.90
2689.00,96.90
2688.00,96.91
2687.00,96.91
2686.00,96.91
2685.00,96.92
2684.00,96.92
2683.00,96.93
2682.00,96.94
2681.00,96.95
2680.00,96.95
2679.00,96.96
2678.00,96.96
2677.00,96.95
2676.00,96.95
2675.00,96.95
2674.00,96.95
2673.00,96.95
2672.00,96.95
2671.00,96.95
2670.00,96.95
2669.00,96.95
2668.00,96.95
2667.00,96.95
2666.00,96.94
2665.00,96.94
2664.00,96.94
2663.00,96.94
2662.00,96.94
2661.00,96.93
2660.00,96.93
2659.00,96.93
2658.00,96.93
2657.00,96.93
2656.00,96.93
2655.00,96.93
2654.00,96.94
2653.00,96.94
2652.00,96.95
2651.00,96.95
2650.00,96.95
2649.00,96.96
2648.00,96.96
2647.00,96.97
2646.00,96.97
2645.00,96.97
2644.00,96.97
2643.00,96.98
2642.00,96.98
2641.00,96.98
2640.00,96.99
2639.00,96.99
2638.00,97.00
2637.00,97.00
2636.00,97.02
2635.00,97.03
2634.00,97.03
2633.00,97.04
2632.00,97.04
2631.00,97.04
2630.00,97.05
2629.00,97.05
2628.00,97.05
2627.00,97.06
2626.00,97.06
2625.00,97.07
2624.00,97.07
2623.00,97.08
2622.00,97.09
2621.00,97.10
2620.00,97.10
2619.00,97.11
2618.00,97.12
2617.00,97.12
2616.00,97.13
2615.00,97.13
2614.00,97.13
2613.00,97.13
2612.00,97.13
2611.00,97.13
2610.00,97.14
2609.00,97.14
2608.00,97.15
2607.00,97.15
2606.00,97.15
2605.00,97.15
2604.00,97.16
2603.00,97.16
2602.00,97.17
2601.00,97.18
2600.00,97.19
2599.00,97.19
2598.00,97.20
2597.00,97.20
2596.00,97.20
2595.00,97.21
2594.00,97.21
2593.00,97.22
2592.00,97.22
2591.00,97.22
2590.00,97.22
2589.00,97.22
2588.00,97.22
2587.00,97.23
2586.00,97.23
2585.00,97.24
2584.00,97.23
2583.00,97.23
2582.00,97.24
2581.00,97.25
2580.00,97.26
2579.00,97.27
2578.00,97.28
2577.00,97.28
2576.00,97.28
2575.00,97.28
2574.00,97.28
2573.00,97.28
2572.00,97.28
2571.00,97.28
2570.00,97.28
2569.00,97.27
2568.00,97.27
2567.00,97.26
2566.00,97.27
2565.00,97.28
2564.00,97.29
2563.00,97.30
2562.00,97.31
2561.00,97.32
2560.00,97.31
2559.00,97.31
2558.00,97.31
2557.00,97.31
2556.00,97.32
2555.00,97.32
2554.00,97.32
2553.00,97.32
2552.00,97.32
2551.00,97.33
2550.00,97.33
2549.00,97.34
2548.00,97.34
2547.00,97.34
2546.00,97.35
2545.00,97.35
2544.00,97.35
2543.00,97.35
2542.00,97.35
2541.00,97.35
2540.00,97.34
2539.00,97.33
2538.00,97.33
2537.00,97.33
2536.00,97.34
2535.00,97.34
2534.00,97.35
2533.00,97.36
2532.00,97.36
2531.00,97.36
2530.00,97.36
2529.00,97.36
2528.00,97.35
2527.00,97.35
2526.00,97.35
2525.00,97.34
2524.00,97.34
2523.00,97.34
2522.00,97.34
2521.00,97.34
2520.00,97.35
2519.00,97.34
2518.00,97.34
2517.00,97.34
2516.00,97.34
2515.00,97.35
2514.00,97.36
2513.00,97.37
2512.00,97.37
2511.00,97.37
2510.00,97.38
2509.00,97.38
2508.00,97.38
2507.00,97.38
2506.00,97.38
2505.00,97.38
2504.00,97.38
2503.00,97.38
2502.00,97.38
2501.00,97.37
2500.00,97.37
2499.00,97.37
2498.00,97.37
2497.00,97.37
2496.00,97.36
2495.00,97.36
2494.00,97.37
2493.00,97.37
2492.00,97.38
2491.00,97.38
2490.00,97.38
2489.00,97.38
2488.00,97.38
2487.00,97.38
2486.00,97.38
2485.00,97.38
2484.00,97.38
2483.00,97.38
2482.00,97.38
2481.00,97.39
2480.00,97.39
2479.00,97.39
2478.00,97.40
2477.00,97.40
2476.00,97.41
2475.00,97.41
2474.00,97.41
2473.00,97.40
2472.00,97.40
2471.00,97.40
2470.00,97.40
2469.00,97.40
2468.00,97.39
2467.00,97.39
2466.00,97.39
2465.00,97.40
2464.00,97.41
2463.00,97.42
2462.00,97.42
2461.00,97.41
2460.00,97.40
2459.00,97.39
2458.00,97.38
2457.00,97.37
2456.00,97.37
2455.00,97.37
2454.00,97.38
2453.00,97.40
2452.00,97.41
2451.00,97.40
2450.00,97.39
2449.00,97.38
2448.00,97.38
2447.00,97.39
2446.00,97.41
2445.00,97.42
2444.00,97.43
2443.00,97.43
2442.00,97.43
2441.00,97.43
2440.00,97.43
2439.00,97.43
2438.00,97.44
2437.00,97.44
2436.00,97.45
2435.00,97.45
2434.00,97.46
2433.00,97.46
2432.00,97.46
2431.00,97.46
2430.00,97.46
2429.00,97.46
2428.00,97.46
2427.00,97.46
2426.00,97.46
2425.00,97.46
2424.00,97.46
2423.00,97.46
2422.00,97.46
2421.00,97.46
2420.00,97.46
2419.00,97.46
2418.00,97.46
2417.00,97.46
2416.00,97.47
2415.00,97.48
2414.00,97.48
2413.00,97.48
2412.00,97.48
2411.00,97.47
2410.00,97.47
2409.00,97.46
2408.00,97.47
2407.00,97.47
2406.00,97.49
2405.00,97.50
2404.00,97.51
2403.00,97.51
2402.00,97.51
2401.00,97.51
2400.00,97.51
2399.00,97.50
2398.00,97.50
2397.00,97.49
2396.00,97.49
2395.00,97.49
2394.00,97.49
2393.00,97.49
2392.00,97.49
2391.00,97.49
2390.00,97.49
2389.00,97.49
2388.00,97.49
2387.00,97.50
2386.00,97.50
2385.00,97.50
2384.00,97.49
2383.00,97.49
2382.00,97.50
2381.00,97.50
2380.00,97.49
2379.00,97.49
2378.00,97.49
2377.00,97.49
2376.00,97.49
2375.00,97.49
2374.00,97.49
2373.00,97.49
2372.00,97.50
2371.00,97.50
2370.00,97.50
2369.00,97.49
2368.00,97.47
2367.00,97.45
2366.00,97.43
2365.00,97.42
2364.00,97.43
2363.00,97.45
2362.00,97.48
2361.00,97.49
2360.00,97.48
2359.00,97.46
2358.00,97.44
2357.00,97.42
2356.00,97.43
2355.00,97.43
2354.00,97.45
2353.00,97.46
2352.00,97.47
2351.00,97.46
2350.00,97.44
2349.00,97.41
2348.00,97.38
2347.00,97.37
2346.00,97.38
2345.00,97.41
2344.00,97.42
2343.00,97.42
2342.00,97.41
2341.00,97.40
2340.00,97.39
2339.00,97.39
2338.00,97.40
2337.00,97.41
2336.00,97.41
2335.00,97.41
2334.00,97.41
2333.00,97.41
2332.00,97.41
2331.00,97.42
2330.00,97.43
2329.00,97.43
2328.00,97.42
2327.00,97.37
2326.00,97.29
2325.00,97.23
2324.00,97.19
2323.00,97.20
2322.00,97.24
2321.00,97.29
2320.00,97.33
2319.00,97.36
2318.00,97.37
2317.00,97.38
2316.00,97.39
2315.00,97.41
2314.00,97.43
2313.00,97.45
2312.00,97.46
2311.00,97.46
2310.00,97.45
2309.00,97.44
2308.00,97.44
2307.00,97.44
2306.00,97.45
2305.00,97.46
2304.00,97.46
2303.00,97.47
2302.00,97.47
2301.00,97.47
2300.00,97.47
2299.00,97.47
2298.00,97.48
2297.00,97.48
2296.00,97.48
2295.00,97.47
2294.00,97.46
2293.00,97.45
2292.00,97.44
2291.00,97.43
2290.00,97.42
2289.00,97.42
2288.00,97.41
2287.00,97.40
2286.00,97.40
2285.00,97.41
2284.00,97.42
2283.00,97.43
2282.00,97.44
2281.00,97.44
2280.00,97.46
2279.00,97.47
2278.00,97.49
2277.00,97.50
2276.00,97.50
2275.00,97.50
2274.00,97.50
2273.00,97.51
2272.00,97.51
2271.00,97.52
2270.00,97.52
2269.00,97.52
2268.00,97.51
2267.00,97.52
2266.00,97.54
2265.00,97.55
2264.00,97.55
2263.00,97.54
2262.00,97.51
2261.00,97.47
2260.00,97.43
2259.00,97.40
2258.00,97.38
2257.00,97.36
2256.00,97.33
2255.00,97.31
2254.00,97.27
2253.00,97.23
2252.00,97.18
2251.00,97.12
2250.00,97.06
2249.00,96.98
2248.00,96.90
2247.00,96.82
2246.00,96.73
2245.00,96.65
2244.00,96.55
2243.00,96.46
2242.00,96.36
2241.00,96.26
2240.00,96.18
2239.00,96.15
2238.00,96.16
2237.00,96.22
2236.00,96.31
2235.00,96.43
2234.00,96.58
2233.00,96.74
2232.00,96.91
2231.00,97.07
2230.00,97.22
2229.00,97.34
2228.00,97.42
2227.00,97.48
2226.00,97.53
2225.00,97.56
2224.00,97.58
2223.00,97.59
2222.00,97.62
2221.00,97.65
2220.00,97.67
2219.00,97.67
2218.00,97.67
2217.00,97.66
2216.00,97.64
2215.00,97.63
2214.00,97.64
2213.00,97.66
2212.00,97.68
2211.00,97.69
2210.00,97.68
2209.00,97.67
2208.00,97.66
2207.00,97.65
2206.00,97.65
2205.00,97.65
2204.00,97.64
2203.00,97.63
2202.00,97.64
2201.00,97.67
2200.00,97.70
2199.00,97.73
2198.00,97.75
2197.00,97.76
2196.00,97.76
2195.00,97.78
2194.00,97.79
2193.00,97.79
2192.00,97.78
2191.00,97.76
2190.00,97.76
2189.00,97.75
2188.00,97.73
2187.00,97.72
2186.00,97.71
2185.00,97.71
2184.00,97.73
2183.00,97.77
2182.00,97.82
2181.00,97.84
2180.00,97.83
2179.00,97.81
2178.00,97.80
2177.00,97.81
2176.00,97.83
2175.00,97.84
2174.00,97.85
2173.00,97.83
2172.00,97.79
2171.00,97.75
2170.00,97.70
2169.00,97.66
2168.00,97.61
2167.00,97.60
2166.00,97.61
2165.00,97.65
2164.00,97.68
2163.00,97.70
2162.00,97.71
2161.00,97.75
2160.00,97.86
2159.00,98.03
2158.00,98.19
2157.00,98.26
2156.00,98.27
2155.00,98.26
2154.00,98.26
2153.00,98.25
2152.00,98.22
2151.00,98.17
2150.00,98.12
2149.00,98.07
2148.00,98.04
2147.00,98.04
2146.00,98.07
2145.00,98.11
2144.00,98.13
2143.00,98.13
2142.00,98.13
2141.00,98.10
2140.00,98.06
2139.00,98.03
2138.00,98.02
2137.00,98.03
2136.00,98.07
2135.00,98.13
2134.00,98.18
2133.00,98.20
2132.00,98.18
2131.00,98.13
2130.00,98.08
2129.00,98.04
2128.00,98.00
2127.00,97.98
2126.00,97.97
2125.00,97.97
2124.00,97.95
2123.00,97.93
2122.00,97.92
2121.00,97.92
2120.00,97.92
2119.00,97.91
2118.00,97.88
2117.00,97.83
2116.00,97.78
2115.00,97.76
2114.00,97.77
2113.00,97.78
2112.00,97.80
2111.00,97.81
2110.00,97.83
2109.00,97.84
2108.00,97.84
2107.00,97.83
2106.00,97.83
2105.00,97.82
2104.00,97.82
2103.00,97.82
2102.00,97.82
2101.00,97.80
2100.00,97.78
2099.00,97.77
2098.00,97.78
2097.00,97.81
2096.00,97.85
2095.00,97.88
2094.00,97.91
2093.00,97.91
2092.00,97.90
2091.00,97.89
2090.00,97.88
2089.00,97.87
2088.00,97.85
2087.00,97.84
2086.00,97.84
2085.00,97.83
2084.00,97.81
2083.00,97.80
2082.00,97.80
2081.00,97.81
2080.00,97.82
2079.00,97.83
2078.00,97.84
2077.00,97.85
2076.00,97.85
2075.00,97.86
2074.00,97.87
2073.00,97.86
2072.00,97.84
2071.00,97.83
2070.00,97.84
2069.00,97.86
2068.00,97.88
2067.00,97.89
2066.00,97.89
2065.00,97.87
2064.00,97.86
2063.00,97.85
2062.00,97.85
2061.00,97.85
2060.00,97.85
2059.00,97.85
2058.00,97.85
2057.00,97.85
2056.00,97.85
2055.00,97.86
2054.00,97.85
2053.00,97.80
2052.00,97.72
2051.00,97.65
2050.00,97.64
2049.00,97.69
2048.00,97.75
2047.00,97.82
2046.00,97.87
2045.00,97.90
2044.00,97.90
2043.00,97.91
2042.00,97.94
2041.00,97.95
2040.00,97.92
2039.00,97.88
2038.00,97.84
2037.00,97.83
2036.00,97.86
2035.00,97.93
2034.00,98.03
2033.00,98.12
2032.00,98.16
2031.00,98.16
2030.00,98.13
2029.00,98.10
2028.00,98.10
2027.00,98.11
2026.00,98.13
2025.00,98.12
2024.00,98.09
2023.00,98.08
2022.00,98.09
2021.00,98.09
2020.00,98.08
2019.00,98.08
2018.00,98.09
2017.00,98.09
2016.00,98.08
2015.00,98.07
2014.00,98.07
2013.00,98.06
2012.00,98.04
2011.00,98.04
2010.00,98.07
2009.00,98.11
2008.00,98.16
2007.00,98.21
2006.00,98.25
2005.00,98.25
2004.00,98.20
2003.00,98.16
2002.00,98.14
2001.00,98.12
2000.00,98.11
1999.00,98.11
1998.00,98.13
1997.00,98.15
1996.00,98.13
1995.00,98.09
1994.00,98.04
1993.00,98.01
1992.00,98.01
1991.00,98.03
1990.00,98.06
1989.00,98.08
1988.00,98.09
1987.00,98.08
1986.00,98.06
1985.00,98.01
1984.00,97.94
1983.00,97.89
1982.00,97.86
1981.00,97.85
1980.00,97.86
1979.00,97.92
1978.00,98.03
1977.00,98.13
1976.00,98.18
1975.00,98.18
1974.00,98.17
1973.00,98.16
1972.00,98.16
1971.00,98.18
1970.00,98.20
1969.00,98.21
1968.00,98.22
1967.00,98.24
1966.00,98.26
1965.00,98.26
1964.00,98.24
1963.00,98.23
1962.00,98.27
1961.00,98.32
1960.00,98.35
1959.00,98.36
1958.00,98.36
1957.00,98.34
1956.00,98.29
1955.00,98.26
1954.00,98.26
1953.00,98.26
1952.00,98.27
1951.00,98.28
1950.00,98.30
1949.00,98.29
1948.00,98.27
1947.00,98.25
1946.00,98.24
1945.00,98.25
1944.00,98.26
1943.00,98.27
1942.00,98.28
1941.00,98.26
1940.00,98.24
1939.00,98.23
1938.00,98.24
1937.00,98.24
1936.00,98.22
1935.00,98.21
1934.00,98.20
1933.00,98.20
1932.00,98.20
1931.00,98.20
1930.00,98.21
1929.00,98.21
1928.00,98.19
1927.00,98.18
1926.00,98.17
1925.00,98.16
1924.00,98.15
1923.00,98.14
1922.00,98.12
1921.00,98.11
1920.00,98.09
1919.00,98.10
1918.00,98.13
1917.00,98.15
1916.00,98.16
1915.00,98.15
1914.00,98.13
1913.00,98.11
1912.00,98.09
1911.00,98.09
1910.00,98.11
1909.00,98.11
1908.00,98.10
1907.00,98.09
1906.00,98.08
1905.00,98.09
1904.00,98.10
1903.00,98.11
1902.00,98.11
1901.00,98.10
1900.00,98.08
1899.00,98.08
1898.00,98.08
1897.00,98.08
1896.00,98.08
1895.00,98.08
1894.00,98.09
1893.00,98.09
1892.00,98.09
1891.00,98.08
1890.00,98.09
1889.00,98.10
1888.00,98.10
1887.00,98.09
1886.00,98.08
1885.00,98.06
1884.00,98.05
1883.00,98.05
1882.00,98.05
1881.00,98.07
1880.00,98.07
1879.00,98.08
1878.00,98.08
1877.00,98.07
1876.00,98.06
1875.00,98.05
1874.00,98.05
1873.00,98.05
1872.00,98.04
1871.00,98.03
1870.00,98.03
1869.00,98.04
1868.00,98.05
1867.00,98.06
1866.00,98.06
1865.00,98.05
1864.00,98.04
1863.00,98.04
1862.00,98.05
1861.00,98.06
1860.00,98.06
1859.00,98.07
1858.00,98.07
1857.00,98.07
1856.00,98.06
1855.00,98.05
1854.00,98.05
1853.00,98.05
1852.00,98.04
1851.00,98.04
1850.00,98.04
1849.00,98.04
1848.00,98.03
1847.00,98.01
1846.00,98.01
1845.00,98.01
1844.00,98.03
1843.00,98.05
1842.00,98.05
1841.00,98.04
1840.00,98.02
1839.00,98.01
1838.00,98.02
1837.00,98.02
1836.00,98.01
1835.00,98.00
1834.00,97.99
1833.00,97.98
1832.00,97.95
1831.00,97.94
1830.00,97.95
1829.00,97.97
1828.00,97.97
1827.00,97.97
1826.00,97.97
1825.00,97.97
1824.00,97.97
1823.00,97.96
1822.00,97.95
1821.00,97.94
1820.00,97.94
1819.00,97.95
1818.00,97.96
1817.00,97.97
1816.00,97.96
1815.00,97.94
1814.00,97.91
1813.00,97.88
1812.00,97.86
1811.00,97.85
1810.00,97.84
1809.00,97.84
1808.00,97.82
1807.00,97.80
1806.00,97.77
1805.00,97.74
1804.00,97.72
1803.00,97.69
1802.00,97.67
1801.00,97.64
1800.00,97.60
1799.00,97.55
1798.00,97.50
1797.00,97.45
1796.00,97.39
1795.00,97.33
1794.00,97.28
1793.00,97.22
1792.00,97.16
1791.00,97.09
1790.00,97.00
1789.00,96.90
1788.00,96.80
1787.00,96.70
1786.00,96.60
1785.00,96.49
1784.00,96.38
1783.00,96.26
1782.00,96.14
1781.00,96.02
1780.00,95.90
1779.00,95.78
1778.00,95.67
1777.00,95.56
1776.00,95.45
1775.00,95.35
1774.00,95.26
1773.00,95.17
1772.00,95.09
1771.00,95.03
1770.00,94.99
1769.00,94.96
1768.00,94.93
1767.00,94.91
1766.00,94.90
1765.00,94.89
1764.00,94.89
1763.00,94.91
1762.00,94.94
1761.00,94.96
1760.00,94.97
1759.00,94.99
1758.00,95.01
1757.00,95.04
1756.00,95.05
1755.00,95.05
1754.00,95.06
1753.00,95.05
1752.00,95.05
1751.00,95.03
1750.00,95.01
1749.00,94.96
1748.00,94.90
1747.00,94.83
1746.00,94.75
1745.00,94.65
1744.00,94.53
1743.00,94.39
1742.00,94.27
1741.00,94.18
1740.00,94.12
1739.00,94.10
1738.00,94.10
1737.00,94.09
1736.00,94.10
1735.00,94.12
1734.00,94.17
1733.00,94.21
1732.00,94.22
1731.00,94.22
1730.00,94.23
1729.00,94.24
1728.00,94.24
1727.00,94.24
1726.00,94.24
1725.00,94.23
1724.00,94.22
1723.00,94.22
1722.00,94.21
1721.00,94.21
1720.00,94.21
1719.00,94.22
1718.00,94.24
1717.00,94.24
1716.00,94.22
1715.00,94.21
1714.00,94.20
1713.00,94.19
1712.00,94.17
1711.00,94.15
1710.00,94.14
1709.00,94.12
1708.00,94.08
1707.00,94.05
1706.00,94.02
1705.00,93.98
1704.00,93.94
1703.00,93.90
1702.00,93.86
1701.00,93.83
1700.00,93.79
1699.00,93.76
1698.00,93.72
1697.00,93.69
1696.00,93.64
1695.00,93.59
1694.00,93.53
1693.00,93.46
1692.00,93.39
1691.00,93.31
1690.00,93.23
1689.00,93.13
1688.00,93.04
1687.00,92.95
1686.00,92.87
1685.00,92.73
1684.00,92.50
1683.00,92.28
1682.00,92.12
1681.00,91.97
1680.00,91.81
1679.00,91.66
1678.00,91.51
1677.00,91.36
1676.00,91.16
1675.00,90.91
1674.00,90.69
1673.00,90.51
1672.00,90.34
1671.00,90.16
1670.00,89.94
1669.00,89.69
1668.00,89.48
1667.00,89.31
1666.00,89.20
1665.00,89.09
1664.00,88.95
1663.00,88.77
1662.00,88.60
1661.00,88.45
1660.00,88.33
1659.00,88.23
1658.00,88.15
1657.00,88.10
1656.00,88.07
1655.00,88.06
1654.00,88.00
1653.00,87.80
1652.00,87.62
1651.00,87.55
1650.00,87.56
1649.00,87.60
1648.00,87.61
1647.00,87.56
1646.00,87.50
1645.00,87.45
1644.00,87.44
1643.00,87.46
1642.00,87.49
1641.00,87.53
1640.00,87.56
1639.00,87.61
1638.00,87.67
1637.00,87.75
1636.00,87.80
1635.00,87.83
1634.00,87.88
1633.00,87.96
1632.00,88.05
1631.00,88.15
1630.00,88.26
1629.00,88.37
1628.00,88.46
1627.00,88.55
1626.00,88.64
1625.00,88.74
1624.00,88.85
1623.00,88.95
1622.00,89.06
1621.00,89.16
1620.00,89.26
1619.00,89.38
1618.00,89.52
1617.00,89.64
1616.00,89.75
1615.00,89.83
1614.00,89.91
1613.00,90.00
1612.00,90.11
1611.00,90.22
1610.00,90.33
1609.00,90.44
1608.00,90.55
1607.00,90.66
1606.00,90.77
1605.00,90.89
1604.00,91.01
1603.00,91.13
1602.00,91.25
1601.00,91.38
1600.00,91.51
1599.00,91.65
1598.00,91.79
1597.00,91.93
1596.00,92.07
1595.00,92.20
1594.00,92.33
1593.00,92.45
1592.00,92.56
1591.00,92.66
1590.00,92.75
1589.00,92.84
1588.00,92.93
1587.00,93.00
1586.00,93.07
1585.00,93.14
1584.00,93.19
1583.00,93.23
1582.00,93.28
1581.00,93.32
1580.00,93.36
1579.00,93.41
1578.00,93.46
1577.00,93.53
1576.00,93.62
1575.00,93.68
1574.00,93.73
1573.00,93.75
1572.00,93.78
1571.00,93.82
1570.00,93.88
1569.00,93.93
1568.00,93.97
1567.00,94.00
1566.00,94.02
1565.00,94.04
1564.00,94.06
1563.00,94.08
1562.00,94.09
1561.00,94.10
1560.00,94.11
1559.00,94.11
1558.00,94.12
1557.00,94.14
1556.00,94.14
1555.00,94.14
1554.00,94.14
1553.00,94.14
1552.00,94.14
1551.00,94.14
1550.00,94.15
1549.00,94.16
1548.00,94.16
1547.00,94.17
1546.00,94.18
1545.00,94.18
1544.00,94.17
1543.00,94.17
1542.00,94.18
1541.00,94.22
1540.00,94.29
1539.00,94.36
1538.00,94.40
1537.00,94.39
1536.00,94.37
1535.00,94.36
1534.00,94.38
1533.00,94.41
1532.00,94.44
1531.00,94.45
1530.00,94.46
1529.00,94.47
1528.00,94.48
1527.00,94.50
1526.00,94.51
1525.00,94.51
1524.00,94.51
1523.00,94.53
1522.00,94.56
1521.00,94.61
1520.00,94.63
1519.00,94.65
1518.00,94.66
1517.00,94.67
1516.00,94.68
1515.00,94.69
1514.00,94.71
1513.00,94.71
1512.00,94.72
1511.00,94.73
1510.00,94.73
1509.00,94.72
1508.00,94.71
1507.00,94.73
1506.00,94.79
1505.00,94.83
1504.00,94.83
1503.00,94.80
1502.00,94.77
1501.00,94.73
1500.00,94.69
1499.00,94.65
1498.00,94.60
1497.00,94.54
1496.00,94.45
1495.00,94.37
1494.00,94.31
1493.00,94.25
1492.00,94.20
1491.00,94.16
1490.00,94.11
1489.00,94.03
1488.00,93.93
1487.00,93.83
1486.00,93.72
1485.00,93.60
1484.00,93.47
1483.00,93.32
1482.00,93.16
1481.00,92.97
1480.00,92.77
1479.00,92.58
1478.00,92.37
1477.00,92.13
1476.00,91.87
1475.00,91.62
1474.00,91.35
1473.00,91.02
1472.00,90.66
1471.00,90.34
1470.00,90.08
1469.00,89.84
1468.00,89.59
1467.00,89.33
1466.00,89.02
1465.00,88.65
1464.00,88.25
1463.00,87.92
1462.00,87.64
1461.00,87.39
1460.00,87.12
1459.00,86.78
1458.00,86.26
1457.00,85.51
1456.00,84.80
1455.00,84.35
1454.00,84.07
1453.00,83.84
1452.00,83.65
1451.00,83.51
1450.00,83.40
1449.00,83.28
1448.00,83.13
1447.00,82.98
1446.00,82.86
1445.00,82.76
1444.00,82.67
1443.00,82.58
1442.00,82.48
1441.00,82.39
1440.00,82.32
1439.00,82.29
1438.00,82.23
1437.00,82.10
1436.00,81.95
1435.00,81.88
1434.00,81.91
1433.00,82.01
1432.00,82.13
1431.00,82.28
1430.00,82.43
1429.00,82.58
1428.00,82.74
1427.00,82.90
1426.00,83.05
1425.00,83.14
1424.00,83.18
1423.00,83.21
1422.00,83.25
1421.00,83.30
1420.00,83.31
1419.00,83.26
1418.00,83.19
1417.00,83.16
1416.00,83.16
1415.00,83.18
1414.00,83.20
1413.00,83.19
1412.00,83.16
1411.00,83.13
1410.00,83.11
1409.00,83.10
1408.00,83.12
1407.00,83.15
1406.00,83.18
1405.00,83.20
1404.00,83.22
1403.00,83.26
1402.00,83.32
1401.00,83.39
1400.00,83.45
1399.00,83.49
1398.00,83.52
1397.00,83.57
1396.00,83.61
1395.00,83.65
1394.00,83.67
1393.00,83.70
1392.00,83.73
1391.00,83.78
1390.00,83.82
1389.00,83.83
1388.00,83.80
1387.00,83.73
1386.00,83.65
1385.00,83.58
1384.00,83.53
1383.00,83.47
1382.00,83.40
1381.00,83.32
1380.00,83.23
1379.00,83.14
1378.00,83.07
1377.00,82.99
1376.00,82.92
1375.00,82.82
1374.00,82.68
1373.00,82.54
1372.00,82.42
1371.00,82.31
1370.00,82.19
1369.00,82.03
1368.00,81.85
1367.00,81.68
1366.00,81.53
1365.00,81.41
1364.00,81.29
1363.00,81.16
1362.00,81.04
1361.00,80.95
1360.00,80.91
1359.00,80.88
1358.00,80.87
1357.00,80.84
1356.00,80.81
1355.00,80.78
1354.00,80.75
1353.00,80.74
1352.00,80.73
1351.00,80.74
1350.00,80.75
1349.00,80.76
1348.00,80.79
1347.00,80.83
1346.00,80.90
1345.00,80.97
1344.00,81.07
1343.00,81.18
1342.00,81.30
1341.00,81.42
1340.00,81.55
1339.00,81.68
1338.00,81.82
1337.00,81.97
1336.00,82.14
1335.00,82.31
1334.00,82.49
1333.00,82.66
1332.00,82.83
1331.00,83.00
1330.00,83.16
1329.00,83.31
1328.00,83.46
1327.00,83.61
1326.00,83.75
1325.00,83.88
1324.00,84.00
1323.00,84.13
1322.00,84.26
1321.00,84.40
1320.00,84.56
1319.00,84.74
1318.00,84.95
1317.00,85.17
1316.00,85.41
1315.00,85.65
1314.00,85.88
1313.00,86.11
1312.00,86.32
1311.00,86.53
1310.00,86.73
1309.00,86.92
1308.00,87.10
1307.00,87.27
1306.00,87.43
1305.00,87.59
1304.00,87.73
1303.00,87.87
1302.00,88.01
1301.00,88.14
1300.00,88.27
1299.00,88.39
1298.00,88.51
1297.00,88.62
1296.00,88.73
1295.00,88.82
1294.00,88.91
1293.00,88.99
1292.00,89.07
1291.00,89.13
1290.00,89.19
1289.00,89.24
1288.00,89.29
1287.00,89.33
1286.00,89.35
1285.00,89.37
1284.00,89.39
1283.00,89.40
1282.00,89.39
1281.00,89.39
1280.00,89.38
1279.00,89.38
1278.00,89.37
1277.00,89.36
1276.00,89.35
1275.00,89.33
1274.00,89.31
1273.00,89.28
1272.00,89.23
1271.00,89.17
1270.00,89.07
1269.00,88.94
1268.00,88.77
1267.00,88.57
1266.00,88.35
1265.00,88.15
1264.00,87.98
1263.00,87.85
1262.00,87.78
1261.00,87.75
1260.00,87.78
1259.00,87.84
1258.00,87.92
1257.00,88.02
1256.00,88.12
1255.00,88.20
1254.00,88.27
1253.00,88.31
1252.00,88.33
1251.00,88.33
1250.00,88.31
1249.00,88.28
1248.00,88.23
1247.00,88.17
1246.00,88.11
1245.00,88.03
1244.00,87.93
1243.00,87.82
1242.00,87.71
1241.00,87.61
1240.00,87.52
1239.00,87.44
1238.00,87.38
1237.00,87.33
1236.00,87.28
1235.00,87.23
1234.00,87.18
1233.00,87.13
1232.00,87.07
1231.00,87.01
1230.00,86.94
1229.00,86.87
1228.00,86.79
1227.00,86.71
1226.00,86.63
1225.00,86.54
1224.00,86.45
1223.00,86.36
1222.00,86.27
1221.00,86.18
1220.00,86.10
1219.00,86.00
1218.00,85.91
1217.00,85.80
1216.00,85.69
1215.00,85.57
1214.00,85.45
1213.00,85.32
1212.00,85.18
1211.00,85.04
1210.00,84.90
1209.00,84.75
1208.00,84.60
1207.00,84.46
1206.00,84.31
1205.00,84.17
1204.00,84.03
1203.00,83.89
1202.00,83.75
1201.00,83.60
1200.00,83.45
1199.00,83.30
1198.00,83.16
1197.00,83.02
1196.00,82.89
1195.00,82.77
1194.00,82.66
1193.00,82.57
1192.00,82.48
1191.00,82.41
1190.00,82.33
1189.00,82.26
1188.00,82.17
1187.00,82.07
1186.00,81.96
1185.00,81.85
1184.00,81.73
1183.00,81.63
1182.00,81.54
1181.00,81.47
1180.00,81.42
1179.00,81.41
1178.00,81.42
1177.00,81.44
1176.00,81.49
1175.00,81.54
1174.00,81.61
1173.00,81.67
1172.00,81.74
1171.00,81.81
1170.00,81.88
1169.00,81.95
1168.00,82.03
1167.00,82.10
1166.00,82.18
1165.00,82.25
1164.00,82.31
1163.00,82.38
1162.00,82.44
1161.00,82.50
1160.00,82.57
1159.00,82.63
1158.00,82.70
1157.00,82.78
1156.00,82.85
1155.00,82.94
1154.00,83.03
1153.00,83.13
1152.00,83.22
1151.00,83.32
1150.00,83.41
1149.00,83.50
1148.00,83.58
1147.00,83.65
1146.00,83.70
1145.00,83.74
1144.00,83.76
1143.00,83.76
1142.00,83.73
1141.00,83.68
1140.00,83.61
1139.00,83.53
1138.00,83.44
1137.00,83.34
1136.00,83.23
1135.00,83.12
1134.00,83.01
1133.00,82.90
1132.00,82.79
1131.00,82.68
1130.00,82.59
1129.00,82.50
1128.00,82.44
1127.00,82.39
1126.00,82.35
1125.00,82.31
1124.00,82.27
1123.00,82.23
1122.00,82.17
1121.00,82.10
1120.00,82.02
1119.00,81.94
1118.00,81.85
1117.00,81.75
1116.00,81.66
1115.00,81.56
1114.00,81.46
1113.00,81.36
1112.00,81.25
1111.00,81.16
1110.00,81.08
1109.00,81.01
1108.00,80.95
1107.00,80.90
1106.00,80.83
1105.00,80.75
1104.00,80.68
1103.00,80.62
1102.00,80.57
1101.00,80.52
1100.00,80.47
1099.00,80.43
1098.00,80.39
1097.00,80.37
1096.00,80.35
1095.00,80.36
1094.00,80.37
1093.00,80.40
1092.00,80.45
1091.00,80.52
1090.00,80.60
1089.00,80.70
1088.00,80.80
1087.00,80.91
1086.00,81.02
1085.00,81.12
1084.00,81.23
1083.00,81.34
1082.00,81.46
1081.00,81.57
1080.00,81.69
1079.00,81.80
1078.00,81.90
1077.00,82.00
1076.00,82.09
1075.00,82.18
1074.00,82.27
1073.00,82.37
1072.00,82.46
1071.00,82.55
1070.00,82.62
1069.00,82.68
1068.00,82.73
1067.00,82.77
1066.00,82.81
1065.00,82.85
1064.00,82.86
1063.00,82.87
1062.00,82.86
1061.00,82.84
1060.00,82.79
1059.00,82.73
1058.00,82.64
1057.00,82.55
1056.00,82.46
1055.00,82.39
1054.00,82.34
1053.00,82.30
1052.00,82.25
1051.00,82.20
1050.00,82.16
1049.00,82.12
1048.00,82.10
1047.00,82.11
1046.00,82.13
1045.00,82.18
1044.00,82.25
1043.00,82.33
1042.00,82.43
1041.00,82.54
1040.00,82.67
1039.00,82.80
1038.00,82.95
1037.00,83.11
1036.00,83.28
1035.00,83.47
1034.00,83.66
1033.00,83.84
1032.00,84.01
1031.00,84.18
1030.00,84.34
1029.00,84.49
1028.00,84.64
1027.00,84.79
1026.00,84.94
1025.00,85.09
1024.00,85.22
1023.00,85.35
1022.00,85.47
1021.00,85.56
1020.00,85.63
1019.00,85.67
1018.00,85.68
1017.00,85.67
1016.00,85.62
1015.00,85.56
1014.00,85.51
1013.00,85.50
1012.00,85.54
1011.00,85.64
1010.00,85.79
1009.00,85.98
1008.00,86.18
1007.00,86.39
1006.00,86.57
1005.00,86.72
1004.00,86.84
1003.00,86.94
1002.00,87.02
1001.00,87.07
1000.00,87.11
999.00,87.14
998.00,87.17
997.00,87.19
996.00,87.21
995.00,87.23
994.00,87.24
993.00,87.23
992.00,87.20
991.00,87.14
990.00,87.04
989.00,86.90
988.00,86.71
987.00,86.48
986.00,86.21
985.00,85.88
984.00,85.48
983.00,85.03
982.00,84.50
981.00,83.92
980.00,83.28
979.00,82.58
978.00,81.85
977.00,81.07
976.00,80.28
975.00,79.47
974.00,78.66
973.00,77.88
972.00,77.15
971.00,76.50
970.00,75.95
969.00,75.54
968.00,75.28
967.00,75.21
966.00,75.35
965.00,75.71
964.00,76.27
963.00,77.02
962.00,77.93
961.00,78.93
960.00,79.97
959.00,81.00
958.00,81.98
957.00,82.87
956.00,83.66
955.00,84.35
954.00,84.93
953.00,85.43
952.00,85.86
951.00,86.23
950.00,86.55
949.00,86.82
948.00,87.04
947.00,87.23
946.00,87.38
945.00,87.51
944.00,87.62
943.00,87.71
942.00,87.78
941.00,87.83
940.00,87.85
939.00,87.87
938.00,87.87
937.00,87.86
936.00,87.83
935.00,87.79
934.00,87.72
933.00,87.64
932.00,87.53
931.00,87.42
930.00,87.31
929.00,87.19
928.00,87.08
927.00,86.97
926.00,86.86
925.00,86.75
924.00,86.66
923.00,86.57
922.00,86.49
921.00,86.43
920.00,86.37
919.00,86.33
918.00,86.31
917.00,86.32
916.00,86.36
915.00,86.43
914.00,86.52
913.00,86.63
912.00,86.75
911.00,86.87
910.00,87.02
909.00,87.17
908.00,87.33
907.00,87.50
906.00,87.66
905.00,87.82
904.00,87.96
903.00,88.08
902.00,88.20
901.00,88.31
900.00,88.40
899.00,88.49
898.00,88.57
897.00,88.63
896.00,88.69
895.00,88.73
894.00,88.76
893.00,88.79
892.00,88.81
891.00,88.82
890.00,88.83
889.00,88.84
888.00,88.85
887.00,88.86
886.00,88.86
885.00,88.86
884.00,88.86
883.00,88.87
882.00,88.88
881.00,88.87
880.00,88.86
879.00,88.85
878.00,88.84
877.00,88.84
876.00,88.84
875.00,88.84
874.00,88.85
873.00,88.86
872.00,88.86
871.00,88.87
870.00,88.88
869.00,88.88
868.00,88.88
867.00,88.89
866.00,88.89
865.00,88.89
864.00,88.89
863.00,88.88
862.00,88.88
861.00,88.88
860.00,88.87
859.00,88.86
858.00,88.85
857.00,88.83
856.00,88.81
855.00,88.79
854.00,88.78
853.00,88.76
852.00,88.73
851.00,88.69
850.00,88.63
849.00,88.57
848.00,88.50
847.00,88.44
846.00,88.37
845.00,88.31
844.00,88.24
843.00,88.16
842.00,88.06
841.00,87.96
840.00,87.84
839.00,87.71
838.00,87.56
837.00,87.40
836.00,87.22
835.00,87.04
834.00,86.84
833.00,86.63
832.00,86.40
831.00,86.17
830.00,85.92
829.00,85.67
828.00,85.43
827.00,85.22
826.00,85.04
825.00,84.91
824.00,84.85
823.00,84.86
822.00,84.93
821.00,85.06
820.00,85.22
819.00,85.40
818.00,85.57
817.00,85.72
816.00,85.84
815.00,85.91
814.00,85.95
813.00,85.95
812.00,85.92
811.00,85.88
810.00,85.84
809.00,85.81
808.00,85.77
807.00,85.72
806.00,85.67
805.00,85.62
804.00,85.57
803.00,85.53
802.00,85.50
801.00,85.48
800.00,85.47
799.00,85.47
798.00,85.49
797.00,85.53
796.00,85.58
795.00,85.63
794.00,85.69
793.00,85.75
792.00,85.81
791.00,85.87
790.00,85.92
789.00,85.97
788.00,86.02
787.00,86.07
786.00,86.12
785.00,86.15
784.00,86.18
783.00,86.20
782.00,86.22
781.00,86.23
780.00,86.25
779.00,86.24
778.00,86.23
777.00,86.22
776.00,86.20
775.00,86.18
774.00,86.15
773.00,86.11
772.00,86.07
771.00,86.03
770.00,85.99
769.00,85.95
768.00,85.91
767.00,85.86
766.00,85.81
765.00,85.76
764.00,85.70
763.00,85.63
762.00,85.57
761.00,85.52
760.00,85.46
759.00,85.41
758.00,85.36
757.00,85.32
756.00,85.29
755.00,85.26
754.00,85.23
753.00,85.21
752.00,85.18
751.00,85.16
750.00,85.14
749.00,85.12
748.00,85.11
747.00,85.09
746.00,85.08
745.00,85.06
744.00,85.04
743.00,85.03
742.00,85.02
741.00,85.00
740.00,84.97
739.00,84.95
738.00,84.94
737.00,84.92
736.00,84.90
735.00,84.86
734.00,84.83
733.00,84.80
732.00,84.77
731.00,84.74
730.00,84.71
729.00,84.69
728.00,84.67
727.00,84.64
726.00,84.61
725.00,84.57
724.00,84.54
723.00,84.51
722.00,84.49
721.00,84.46
720.00,84.44
719.00,84.42
718.00,84.41
717.00,84.40
716.00,84.39
715.00,84.37
714.00,84.34
713.00,84.29
712.00,84.22
711.00,84.13
710.00,84.01
709.00,83.86
708.00,83.67
707.00,83.45
706.00,83.19
705.00,82.89
704.00,82.56
703.00,82.21
702.00,81.86
701.00,81.53
700.00,81.24
699.00,81.03
698.00,80.93
697.00,80.93
696.00,81.01
695.00,81.15
694.00,81.28
693.00,81.37
692.00,81.41
691.00,81.42
690.00,81.40
689.00,81.36
688.00,81.33
687.00,81.31
686.00,81.30
685.00,81.30
684.00,81.32
683.00,81.34
682.00,81.36
681.00,81.36
680.00,81.35
679.00,81.33
678.00,81.31
677.00,81.28
676.00,81.24
675.00,81.19
674.00,81.15
673.00,81.10
672.00,81.08
671.00,81.09
670.00,81.13
669.00,81.14
668.00,81.03
667.00,80.84
666.00,80.70
665.00,80.62
664.00,80.56
663.00,80.50
662.00,80.45
661.00,80.43
660.00,80.43
659.00,80.46
658.00,80.51
657.00,80.57
656.00,80.63
655.00,80.70
654.00,80.77
653.00,80.83
652.00,80.90
651.00,80.97
650.00,81.03
649.00,81.08
648.00,81.12
647.00,81.16
646.00,81.20
645.00,81.25
644.00,81.29
643.00,81.32
642.00,81.34
641.00,81.33
640.00,81.31
639.00,81.28
638.00,81.24
637.00,81.19
636.00,81.13
635.00,81.06
634.00,80.99
633.00,80.90
632.00,80.82
631.00,80.76
630.00,80.70
629.00,80.64
628.00,80.57
627.00,80.49
626.00,80.39
625.00,80.30
624.00,80.22
623.00,80.14
622.00,80.06
621.00,79.96
620.00,79.85
619.00,79.75
618.00,79.65
617.00,79.55
616.00,79.46
615.00,79.36
614.00,79.26
613.00,79.15
612.00,79.03
611.00,78.90
610.00,78.76
609.00,78.60
608.00,78.43
607.00,78.27
606.00,78.11
605.00,77.94
604.00,77.79
603.00,77.64
602.00,77.52
601.00,77.43
600.00,77.37
599.00,77.38
598.00,77.46
597.00,77.58
596.00,77.72
595.00,77.86
594.00,77.97
593.00,78.06
592.00,78.10
591.00,78.11
590.00,78.08
589.00,78.02
588.00,77.94
587.00,77.85
586.00,77.77
585.00,77.70
584.00,77.65
583.00,77.62
582.00,77.60
581.00,77.58
580.00,77.57
579.00,77.57
578.00,77.60
577.00,77.63
576.00,77.64
575.00,77.66
574.00,77.67
573.00,77.67
572.00,77.67
571.00,77.67
570.00,77.67
569.00,77.65
568.00,77.60
567.00,77.54
566.00,77.50
565.00,77.47
564.00,77.45
563.00,77.44
562.00,77.43
561.00,77.42
560.00,77.40
559.00,77.36
558.00,77.32
557.00,77.28
556.00,77.26
555.00,77.26
554.00,77.27
553.00,77.29
552.00,77.31
551.00,77.32
550.00,77.33
549.00,77.34
548.00,77.35
547.00,77.36
546.00,77.39
545.00,77.42
544.00,77.46
543.00,77.49
542.00,77.51
541.00,77.52
540.00,77.53
539.00,77.55
538.00,77.59
537.00,77.64
536.00,77.70
535.00,77.77
534.00,77.82
533.00,77.85
532.00,77.88
531.00,77.93
530.00,77.98
529.00,78.03
528.00,78.07
527.00,78.11
526.00,78.12
525.00,78.12
524.00,78.12
523.00,78.12
522.00,78.13
521.00,78.13
520.00,78.12
519.00,78.10
518.00,78.07
517.00,78.02
516.00,77.98
515.00,77.97
514.00,77.98
513.00,77.98
512.00,77.97
511.00,77.94
510.00,77.91
509.00,77.88
508.00,77.82
507.00,77.74
506.00,77.65
505.00,77.57
504.00,77.52
503.00,77.48
502.00,77.45
501.00,77.41
500.00,77.34
499.00,77.26
498.00,77.17
497.00,77.08
496.00,76.99
495.00,76.90
494.00,76.80
493.00,76.67
492.00,76.53
491.00,76.42
490.00,76.34
489.00,76.29
488.00,76.23
487.00,76.17
486.00,76.13
485.00,76.10
484.00,76.08
483.00,76.04
482.00,75.98
481.00,75.91
480.00,75.84
479.00,75.78
478.00,75.72
477.00,75.68
476.00,75.66
475.00,75.63
474.00,75.58
473.00,75.50
472.00,75.44
471.00,75.45
470.00,75.49
469.00,75.51
468.00,75.53
467.00,75.57
466.00,75.62
465.00,75.65
464.00,75.65
463.00,75.66
462.00,75.68
461.00,75.72
460.00,75.78
459.00,75.88
458.00,76.00
457.00,76.07
456.00,76.06
455.00,76.04
454.00,76.05
453.00,76.11
452.00,76.19
451.00,76.29
450.00,76.38
449.00,76.47
448.00,76.56
447.00,76.66
446.00,76.76
445.00,76.85
444.00,76.96
443.00,77.07
442.00,77.15
441.00,77.20
440.00,77.26
439.00,77.36
438.00,77.46
437.00,77.53
436.00,77.56
435.00,77.59
434.00,77.61
433.00,77.61
432.00,77.60
431.00,77.61
430.00,77.64
429.00,77.67
428.00,77.74
427.00,77.83
426.00,77.89
425.00,77.88
424.00,77.86
423.00,77.94
422.00,78.08
421.00,78.20
420.00,78.27
419.00,78.33
418.00,78.38
417.00,78.37
416.00,78.31
415.00,78.29
414.00,78.32
413.00,78.33
412.00,78.27
411.00,78.18
410.00,78.10
409.00,78.08
408.00,78.15
407.00,78.29
406.00,78.40
405.00,78.42
404.00,78.44
403.00,78.58
402.00,78.79
401.00,78.92
400.00,78.91
