Created as New Dataset,Sample 717 By Administrator Date Monday, September 21 2026
cm-1,%T
4000.00,96.20
3999.00,96.20
3998.00,96.20
3997.00,96.21
3996.00,96.21
3995.00,96.21
3994.00,96.21
3993.00,96.21
3992.00,96.21
3991.00,96.21
3990.00,96.22
3989.00,96.22
3988.00,96.22
3987.00,96.23
3986.00,96.23
3985.00,96.22
3984.00,96.22
3983.00,96.21
3982.00,96.21
3981.00,96.21
3980.00,96.21
3979.00,96.21
3978.00,96.21
3977.00,96.21
3976.00,96.21
3975.00,96.22
3974.00,96.22
3973.00,96.23
3972.00,96.23
3971.00,96.23
3970.00,96.23
3969.00,96.23
3968.00,96.23
3967.00,96.23
3966.00,96.23
3965.00,96.23
3964.00,96.23
3963.00,96.23
3962.00,96.23
3961.00,96.23
3960.00,96.23
3959.00,96.23
3958.00,96.22
3957.00,96.22
3956.00,96.22
3955.00,96.22
3954.00,96.22
3953.00,96.22
3952.00,96.23
3951.00,96.23
3950.00,96.24
3949.00,96.23
3948.00,96.23
3947.00,96.23
3946.00,96.23
3945.00,96.23
3944.00,96.23
3943.00,96.24
3942.00,96.24
3941.00,96.24
3940.00,96.25
3939.00,96.24
3938.00,96.24
3937.00,96.24
3936.00,96.23
3935.00,96.23
3934.00,96.22
3933.00,96.22
3932.00,96.22
3931.00,96.23
3930.00,96.23
3929.00,96.24
3928.00,96.24
3927.00,96.25
3926.00,96.25
3925.00,96.25
3924.00,96.25
3923.00,96.25
3922.00,96.25
3921.00,96.25
3920.00,96.25
3919.00,96.24
3918.00,96.24
3917.00,96.25
3916.00,96.25
3915.00,96.26
3914.00,96.26
3913.00,96.27
3912.00,96.27
3911.00,96.28
3910.00,96.28
3909.00,96.28
3908.00,96.27
3907.00,96.26
3906.00,96.25
3905.00,96.25
3904.00,96.25
3903.00,96.25
3902.00,96.25
3901.00,96.25
3900.00,96.25
3899.00,96.26
3898.00,96.27
3897.00,96.27
3896.00,96.27
3895.00,96.27
3894.00,96.28
3893.00,96.28
3892.00,96.28
3891.00,96.29
3890.00,96.29
3889.00,96.29
3888.00,96.28
3887.00,96.28
3886.00,96.27
3885.00,96.27
3884.00,96.28
3883.00,96.28
3882.00,96.28
3881.00,96.29
3880.00,96.30
3879.00,96.30
3878.00,96.30
3877.00,96.30
3876.00,96.30
3875.00,96.30
3874.00,96.30
3873.00,96.30
3872.00,96.29
3871.00,96.29
3870.00,96.30
3869.00,96.30
3868.00,96.30
3867.00,96.29
3866.00,96.29
3865.00,96.29
3864.00,96.30
3863.00,96.31
3862.00,96.31
3861.00,96.30
3860.00,96.30
3859.00,96.30
3858.00,96.30
3857.00,96.31
3856.00,96.32
3855.00,96.32
3854.00,96.31
3853.00,96.32
3852.00,96.32
3851.00,96.32
3850.00,96.33
3849.00,96.33
3848.00,96.33
3847.00,96.33
3846.00,96.33
3845.00,96.33
3844.00,96.33
3843.00,96.33
3842.00,96.33
3841.00,96.34
3840.00,96.34
3839.00,96.34
3838.00,96.33
3837.00,96.33
3836.00,96.33
3835.00,96.34
3834.00,96.34
3833.00,96.35
3832.00,96.35
3831.00,96.35
3830.00,96.36
3829.00,96.36
3828.00,96.36
3827.00,96.36
3826.00,96.36
3825.00,96.36
3824.00,96.35
3823.00,96.34
3822.00,96.34
3821.00,96.35
3820.00,96.36
3819.00,96.37
3818.00,96.37
3817.00,96.36
3816.00,96.37
3815.00,96.38
3814.00,96.38
3813.00,96.38
3812.00,96.38
3811.00,96.38
3810.00,96.38
3809.00,96.38
3808.00,96.38
3807.00,96.38
3806.00,96.38
3805.00,96.38
3804.00,96.38
3803.00,96.38
3802.00,96.38
3801.00,96.39
3800.00,96.39
3799.00,96.40
3798.00,96.40
3797.00,96.41
3796.00,96.42
3795.00,96.43
3794.00,96.43
3793.00,96.42
3792.00,96.42
3791.00,96.41
3790.00,96.41
3789.00,96.41
3788.00,96.40
3787.00,96.40
3786.00,96.40
3785.00,96.41
3784.00,96.41
3783.00,96.42
3782.00,96.42
3781.00,96.43
3780.00,96.44
3779.00,96.45
3778.00,96.45
3777.00,96.45
3776.00,96.44
3775.00,96.44
3774.00,96.44
3773.00,96.44
3772.00,96.43
3771.00,96.43
3770.00,96.43
3769.00,96.42
3768.00,96.42
3767.00,96.42
3766.00,96.43
3765.00,96.43
3764.00,96.43
3763.00,96.43
3762.00,96.43
3761.00,96.42
3760.00,96.43
3759.00,96.43
3758.00,96.44
3757.00,96.44
3756.00,96.44
3755.00,96.43
3754.00,96.43
3753.00,96.42
3752.00,96.42
3751.00,96.41
3750.00,96.40
3749.00,96.38
3748.00,96.38
3747.00,96.38
3746.00,96.39
3745.00,96.40
3744.00,96.41
3743.00,96.42
3742.00,96.43
3741.00,96.42
3740.00,96.41
3739.00,96.40
3738.00,96.39
3737.00,96.39
3736.00,96.40
3735.00,96.43
3734.00,96.46
3733.00,96.48
3732.00,96.48
3731.00,96.48
3730.00,96.48
3729.00,96.47
3728.00,96.46
3727.00,96.45
3726.00,96.45
3725.00,96.46
3724.00,96.46
3723.00,96.46
3722.00,96.47
3721.00,96.48
3720.00,96.48
3719.00,96.49
3718.00,96.50
3717.00,96.50
3716.00,96.50
3715.00,96.49
3714.00,96.48
3713.00,96.46
3712.00,96.46
3711.00,96.46
3710.00,96.47
3709.00,96.49
3708.00,96.50
3707.00,96.51
3706.00,96.52
3705.00,96.52
3704.00,96.52
3703.00,96.52
3702.00,96.52
3701.00,96.51
3700.00,96.51
3699.00,96.50
3698.00,96.49
3697.00,96.49
3696.00,96.49
3695.00,96.49
3694.00,96.48
3693.00,96.48
3692.00,96.48
3691.00,96.49
3690.00,96.49
3689.00,96.49
3688.00,96.48
3687.00,96.47
3686.00,96.46
3685.00,96.46
3684.00,96.45
3683.00,96.44
3682.00,96.44
3681.00,96.43
3680.00,96.42
3679.00,96.41
3678.00,96.39
3677.00,96.37
3676.00,96.35
3675.00,96.34
3674.00,96.34
3673.00,96.33
3672.00,96.33
3671.00,96.32
3670.00,96.31
3669.00,96.31
3668.00,96.30
3667.00,96.28
3666.00,96.27
3665.00,96.25
3664.00,96.24
3663.00,96.22
3662.00,96.20
3661.00,96.19
3660.00,96.17
3659.00,96.15
3658.00,96.13
3657.00,96.11
3656.00,96.09
3655.00,96.07
3654.00,96.04
3653.00,96.02
3652.00,95.99
3651.00,95.96
3650.00,95.93
3649.00,95.90
3648.00,95.87
3647.00,95.84
3646.00,95.83
3645.00,95.81
3644.00,95.80
3643.00,95.79
3642.00,95.78
3641.00,95.77
3640.00,95.76
3639.00,95.74
3638.00,95.71
3637.00,95.68
3636.00,95.64
3635.00,95.61
3634.00,95.58
3633.00,95.56
3632.00,95.54
3631.00,95.52
3630.00,95.48
3629.00,95.43
3628.00,95.39
3627.00,95.36
3626.00,95.35
3625.00,95.34
3624.00,95.33
3623.00,95.33
3622.00,95.32
3621.00,95.30
3620.00,95.27
3619.00,95.23
3618.00,95.19
3617.00,95.15
3616.00,95.11
3615.00,95.07
3614.00,95.03
3613.00,95.00
3612.00,94.97
3611.00,94.94
3610.00,94.92
3609.00,94.89
3608.00,94.87
3607.00,94.84
3606.00,94.83
3605.00,94.81
3604.00,94.79
3603.00,94.78
3602.00,94.76
3601.00,94.73
3600.00,94.71
3599.00,94.69
3598.00,94.66
3597.00,94.64
3596.00,94.61
3595.00,94.57
3594.00,94.52
3593.00,94.49
3592.00,94.47
3591.00,94.46
3590.00,94.44
3589.00,94.42
3588.00,94.38
3587.00,94.34
3586.00,94.30
3585.00,94.28
3584.00,94.26
3583.00,94.24
3582.00,94.23
3581.00,94.22
3580.00,94.22
3579.00,94.21
3578.00,94.19
3577.00,94.17
3576.00,94.15
3575.00,94.12
3574.00,94.09
3573.00,94.06
3572.00,94.04
3571.00,94.02
3570.00,93.99
3569.00,93.96
3568.00,93.92
3567.00,93.87
3566.00,93.82
3565.00,93.79
3564.00,93.76
3563.00,93.74
3562.00,93.73
3561.00,93.72
3560.00,93.70
3559.00,93.69
3558.00,93.67
3557.00,93.65
3556.00,93.63
3555.00,93.61
3554.00,93.58
3553.00,93.55
3552.00,93.53
3551.00,93.52
3550.00,93.50
3549.00,93.49
3548.00,93.46
3547.00,93.42
3546.00,93.39
3545.00,93.36
3544.00,93.34
3543.00,93.32
3542.00,93.31
3541.00,93.29
3540.00,93.28
3539.00,93.27
3538.00,93.26
3537.00,93.24
3536.00,93.22
3535.00,93.20
3534.00,93.19
3533.00,93.17
3532.00,93.15
3531.00,93.13
3530.00,93.10
3529.00,93.06
3528.00,93.03
3527.00,93.00
3526.00,92.98
3525.00,92.96
3524.00,92.95
3523.00,92.93
3522.00,92.92
3521.00,92.90
3520.00,92.89
3519.00,92.88
3518.00,92.86
3517.00,92.84
3516.00,92.82
3515.00,92.81
3514.00,92.79
3513.00,92.77
3512.00,92.76
3511.00,92.73
3510.00,92.71
3509.00,92.68
3508.00,92.66
3507.00,92.65
3506.00,92.63
3505.00,92.61
3504.00,92.58
3503.00,92.55
3502.00,92.52
3501.00,92.50
3500.00,92.49
3499.00,92.48
3498.00,92.47
3497.00,92.46
3496.00,92.44
3495.00,92.42
3494.00,92.40
3493.00,92.38
3492.00,92.36
3491.00,92.34
3490.00,92.32
3489.00,92.30
3488.00,92.28
3487.00,92.26
3486.00,92.24
3485.00,92.23
3484.00,92.22
3483.00,92.20
3482.00,92.18
3481.00,92.15
3480.00,92.13
3479.00,92.12
3478.00,92.11
3477.00,92.09
3476.00,92.08
3475.00,92.07
3474.00,92.06
3473.00,92.04
3472.00,92.03
3471.00,92.01
3470.00,91.99
3469.00,91.97
3468.00,91.96
3467.00,91.94
3466.00,91.93
3465.00,91.92
3464.00,91.91
3463.00,91.89
3462.00,91.87
3461.00,91.84
3460.00,91.82
3459.00,91.80
3458.00,91.79
3457.00,91.78
3456.00,91.77
3455.00,91.76
3454.00,91.75
3453.00,91.74
3452.00,91.73
3451.00,91.72
3450.00,91.72
3449.00,91.71
3448.00,91.69
3447.00,91.68
3446.00,91.66
3445.00,91.64
3444.00,91.63
3443.00,91.63
3442.00,91.62
3441.00,91.62
3440.00,91.61
3439.00,91.60
3438.00,91.59
3437.00,91.58
3436.00,91.57
3435.00,91.57
3434.00,91.56
3433.00,91.56
3432.00,91.55
3431.00,91.55
3430.00,91.54
3429.00,91.53
3428.00,91.52
3427.00,91.52
3426.00,91.51
3425.00,91.50
3424.00,91.50
3423.00,91.49
3422.00,91.48
3421.00,91.47
3420.00,91.46
3419.00,91.46
3418.00,91.46
3417.00,91.45
3416.00,91.45
3415.00,91.46
3414.00,91.46
3413.00,91.46
3412.00,91.46
3411.00,91.46
3410.00,91.45
3409.00,91.45
3408.00,91.45
3407.00,91.44
3406.00,91.44
3405.00,91.44
3404.00,91.43
3403.00,91.44
3402.00,91.44
3401.00,91.44
3400.00,91.44
3399.00,91.44
3398.00,91.44
3397.00,91.44
3396.00,91.45
3395.00,91.45
3394.00,91.46
3393.00,91.46
3392.00,91.47
3391.00,91.47
3390.00,91.48
3389.00,91.49
3388.00,91.50
3387.00,91.51
3386.00,91.51
3385.00,91.52
3384.00,91.52
3383.00,91.53
3382.00,91.53
3381.00,91.54
3380.00,91.55
3379.00,91.56
3378.00,91.57
3377.00,91.57
3376.00,91.58
3375.00,91.59
3374.00,91.60
3373.00,91.61
3372.00,91.62
3371.00,91.63
3370.00,91.64
3369.00,91.65
3368.00,91.66
3367.00,91.67
3366.00,91.67
3365.00,91.68
3364.00,91.69
3363.00,91.70
3362.00,91.71
3361.00,91.72
3360.00,91.73
3359.00,91.74
3358.00,91.74
3357.00,91.75
3356.00,91.76
3355.00,91.77
3354.00,91.78
3353.00,91.79
3352.00,91.81
3351.00,91.82
3350.00,91.83
3349.00,91.84
3348.00,91.85
3347.00,91.87
3346.00,91.89
3345.00,91.90
3344.00,91.92
3343.00,91.93
3342.00,91.95
3341.00,91.96
3340.00,91.97
3339.00,91.99
3338.00,92.00
3337.00,92.01
3336.00,92.02
3335.00,92.03
3334.00,92.04
3333.00,92.06
3332.00,92.07
3331.00,92.08
3330.00,92.09
3329.00,92.11
3328.00,92.13
3327.00,92.14
3326.00,92.15
3325.00,92.16
3324.00,92.17
3323.00,92.19
3322.00,92.20
3321.00,92.21
3320.00,92.22
3319.00,92.23
3318.00,92.24
3317.00,92.26
3316.00,92.27
3315.00,92.29
3314.00,92.30
3313.00,92.31
3312.00,92.32
3311.00,92.33
3310.00,92.34
3309.00,92.35
3308.00,92.37
3307.00,92.39
3306.00,92.41
3305.00,92.42
3304.00,92.43
3303.00,92.44
3302.00,92.44
3301.00,92.45
3300.00,92.46
3299.00,92.47
3298.00,92.48
3297.00,92.49
3296.00,92.50
3295.00,92.51
3294.00,92.53
3293.00,92.55
3292.00,92.56
3291.00,92.57
3290.00,92.58
3289.00,92.58
3288.00,92.59
3287.00,92.60
3286.00,92.60
3285.00,92.61
3284.00,92.62
3283.00,92.63
3282.00,92.64
3281.00,92.65
3280.00,92.67
3279.00,92.68
3278.00,92.69
3277.00,92.70
3276.00,92.71
3275.00,92.73
3274.00,92.74
3273.00,92.76
3272.00,92.77
3271.00,92.79
3270.00,92.79
3269.00,92.80
3268.00,92.80
3267.00,92.81
3266.00,92.82
3265.00,92.84
3264.00,92.85
3263.00,92.86
3262.00,92.88
3261.00,92.89
3260.00,92.90
3259.00,92.91
3258.00,92.93
3257.00,92.94
3256.00,92.96
3255.00,92.98
3254.00,92.99
3253.00,93.00
3252.00,93.01
3251.00,93.03
3250.00,93.05
3249.00,93.07
3248.00,93.08
3247.00,93.10
3246.00,93.11
3245.00,93.12
3244.00,93.13
3243.00,93.13
3242.00,93.15
3241.00,93.16
3240.00,93.18
3239.00,93.19
3238.00,93.21
3237.00,93.24
3236.00,93.26
3235.00,93.28
3234.00,93.30
3233.00,93.31
3232.00,93.32
3231.00,93.33
3230.00,93.35
3229.00,93.36
3228.00,93.38
3227.00,93.39
3226.00,93.40
3225.00,93.42
3224.00,93.43
3223.00,93.45
3222.00,93.47
3221.00,93.48
3220.00,93.50
3219.00,93.51
3218.00,93.52
3217.00,93.53
3216.00,93.54
3215.00,93.56
3214.00,93.57
3213.00,93.59
3212.00,93.61
3211.00,93.63
3210.00,93.66
3209.00,93.68
3208.00,93.70
3207.00,93.71
3206.00,93.73
3205.00,93.74
3204.00,93.75
3203.00,93.77
3202.00,93.78
3201.00,93.80
3200.00,93.81
3199.00,93.83
3198.00,93.84
3197.00,93.86
3196.00,93.87
3195.00,93.89
3194.00,93.90
3193.00,93.93
3192.00,93.95
3191.00,93.97
3190.00,93.99
3189.00,94.00
3188.00,94.02
3187.00,94.04
3186.00,94.05
3185.00,94.07
3184.00,94.08
3183.00,94.10
3182.00,94.11
3181.00,94.13
3180.00,94.15
3179.00,94.17
3178.00,94.19
3177.00,94.20
3176.00,94.21
3175.00,94.22
3174.00,94.23
3173.00,94.25
3172.00,94.27
3171.00,94.29
3170.00,94.32
3169.00,94.34
3168.00,94.36
3167.00,94.37
3166.00,94.38
3165.00,94.39
3164.00,94.40
3163.00,94.42
3162.00,94.43
3161.00,94.44
3160.00,94.45
3159.00,94.46
3158.00,94.48
3157.00,94.49
3156.00,94.51
3155.00,94.52
3154.00,94.55
3153.00,94.57
3152.00,94.59
3151.00,94.60
3150.00,94.61
3149.00,94.62
3148.00,94.63
3147.00,94.64
3146.00,94.66
3145.00,94.67
3144.00,94.68
3143.00,94.70
3142.00,94.71
3141.00,94.73
3140.00,94.75
3139.00,94.76
3138.00,94.76
3137.00,94.77
3136.00,94.78
3135.00,94.78
3134.00,94.79
3133.00,94.80
3132.00,94.81
3131.00,94.82
3130.00,94.84
3129.00,94.85
3128.00,94.86
3127.00,94.87
3126.00,94.88
3125.00,94.89
3124.00,94.90
3123.00,94.92
3122.00,94.93
3121.00,94.94
3120.00,94.95
3119.00,94.97
3118.00,94.98
3117.00,94.99
3116.00,95.00
3115.00,95.01
3114.00,95.02
3113.00,95.02
3112.00,95.03
3111.00,95.03
3110.00,95.04
3109.00,95.04
3108.00,95.05
3107.00,95.06
3106.00,95.07
3105.00,95.08
3104.00,95.09
3103.00,95.10
3102.00,95.10
3101.00,95.11
3100.00,95.11
3099.00,95.12
3098.00,95.13
3097.00,95.15
3096.00,95.16
3095.00,95.17
3094.00,95.17
3093.00,95.17
3092.00,95.18
3091.00,95.18
3090.00,95.19
3089.00,95.20
3088.00,95.21
3087.00,95.21
3086.00,95.22
3085.00,95.23
3084.00,95.24
3083.00,95.25
3082.00,95.25
3081.00,95.26
3080.00,95.26
3079.00,95.27
3078.00,95.27
3077.00,95.28
3076.00,95.29
3075.00,95.29
3074.00,95.29
3073.00,95.29
3072.00,95.30
3071.00,95.30
3070.00,95.31
3069.00,95.31
3068.00,95.32
3067.00,95.32
3066.00,95.33
3065.00,95.34
3064.00,95.35
3063.00,95.36
3062.00,95.37
3061.00,95.37
3060.00,95.38
3059.00,95.39
3058.00,95.40
3057.00,95.41
3056.00,95.42
3055.00,95.42
3054.00,95.42
3053.00,95.43
3052.00,95.44
3051.00,95.46
3050.00,95.47
3049.00,95.48
3048.00,95.49
3047.00,95.49
3046.00,95.49
3045.00,95.50
3044.00,95.50
3043.00,95.51
3042.00,95.51
3041.00,95.51
3040.00,95.52
3039.00,95.52
3038.00,95.53
3037.00,95.53
3036.00,95.53
3035.00,95.53
3034.00,95.53
3033.00,95.54
3032.00,95.54
3031.00,95.54
3030.00,95.54
3029.00,95.54
3028.00,95.54
3027.00,95.55
3026.00,95.56
3025.00,95.57
3024.00,95.58
3023.00,95.58
3022.00,95.58
3021.00,95.58
3020.00,95.59
3019.00,95.60
3018.00,95.60
3017.00,95.61
3016.00,95.62
3015.00,95.63
3014.00,95.64
3013.00,95.65
3012.00,95.64
3011.00,95.64
3010.00,95.63
3009.00,95.62
3008.00,95.61
3007.00,95.60
3006.00,95.60
3005.00,95.60
3004.00,95.60
3003.00,95.59
3002.00,95.58
3001.00,95.57
3000.00,95.56
2999.00,95.56
2998.00,95.55
2997.00,95.54
2996.00,95.52
2995.00,95.51
2994.00,95.50
2993.00,95.48
2992.00,95.45
2991.00,95.42
2990.00,95.39
2989.00,95.36
2988.00,95.32
2987.00,95.29
2986.00,95.25
2985.00,95.20
2984.00,95.16
2983.00,95.11
2982.00,95.06
2981.00,95.00
2980.00,94.93
2979.00,94.86
2978.00,94.77
2977.00,94.67
2976.00,94.56
2975.00,94.45
2974.00,94.33
2973.00,94.19
2972.00,94.05
2971.00,93.89
2970.00,93.73
2969.00,93.56
2968.00,93.39
2967.00,93.22
2966.00,93.06
2965.00,92.92
2964.00,92.79
2963.00,92.69
2962.00,92.60
2961.00,92.54
2960.00,92.50
2959.00,92.48
2958.00,92.47
2957.00,92.48
2956.00,92.51
2955.00,92.54
2954.00,92.58
2953.00,92.61
2952.00,92.65
2951.00,92.68
2950.00,92.71
2949.00,92.73
2948.00,92.74
2947.00,92.73
2946.00,92.70
2945.00,92.65
2944.00,92.58
2943.00,92.49
2942.00,92.38
2941.00,92.25
2940.00,92.12
2939.00,91.98
2938.00,91.83
2937.00,91.67
2936.00,91.51
2935.00,91.35
2934.00,91.19
2933.00,91.03
2932.00,90.87
2931.00,90.72
2930.00,90.57
2929.00,90.42
2928.00,90.30
2927.00,90.19
2926.00,90.10
2925.00,90.04
2924.00,90.01
2923.00,90.01
2922.00,90.04
2921.00,90.11
2920.00,90.21
2919.00,90.36
2918.00,90.53
2917.00,90.74
2916.00,90.95
2915.00,91.16
2914.00,91.36
2913.00,91.55
2912.00,91.72
2911.00,91.87
2910.00,92.02
2909.00,92.15
2908.00,92.28
2907.00,92.40
2906.00,92.51
2905.00,92.62
2904.00,92.72
2903.00,92.81
2902.00,92.90
2901.00,92.97
2900.00,93.05
2899.00,93.12
2898.00,93.19
2897.00,93.26
2896.00,93.33
2895.00,93.40
2894.00,93.46
2893.00,93.51
2892.00,93.57
2891.00,93.62
2890.00,93.67
2889.00,93.71
2888.00,93.75
2887.00,93.79
2886.00,93.82
2885.00,93.85
2884.00,93.87
2883.00,93.88
2882.00,93.89
2881.00,93.89
2880.00,93.88
2879.00,93.86
2878.00,93.84
2877.00,93.82
2876.00,93.79
2875.00,93.75
2874.00,93.72
2873.00,93.69
2872.00,93.67
2871.00,93.66
2870.00,93.65
2869.00,93.66
2868.00,93.66
2867.00,93.65
2866.00,93.63
2865.00,93.60
2864.00,93.55
2863.00,93.49
2862.00,93.42
2861.00,93.34
2860.00,93.25
2859.00,93.14
2858.00,93.04
2857.00,92.94
2856.00,92.86
2855.00,92.79
2854.00,92.74
2853.00,92.71
2852.00,92.71
2851.00,92.77
2850.00,92.87
2849.00,93.03
2848.00,93.23
2847.00,93.46
2846.00,93.68
2845.00,93.90
2844.00,94.09
2843.00,94.25
2842.00,94.40
2841.00,94.54
2840.00,94.65
2839.00,94.76
2838.00,94.85
2837.00,94.92
2836.00,94.99
2835.00,95.06
2834.00,95.11
2833.00,95.16
2832.00,95.21
2831.00,95.25
2830.00,95.29
2829.00,95.33
2828.00,95.37
2827.00,95.41
2826.00,95.44
2825.00,95.47
2824.00,95.50
2823.00,95.52
2822.00,95.54
2821.00,95.56
2820.00,95.57
2819.00,95.59
2818.00,95.61
2817.00,95.62
2816.00,95.64
2815.00,95.65
2814.00,95.67
2813.00,95.69
2812.00,95.70
2811.00,95.72
2810.00,95.74
2809.00,95.75
2808.00,95.77
2807.00,95.78
2806.00,95.79
2805.00,95.80
2804.00,95.81
2803.00,95.82
2802.00,95.83
2801.00,95.84
2800.00,95.86
2799.00,95.87
2798.00,95.88
2797.00,95.88
2796.00,95.89
2795.00,95.90
2794.00,95.91
2793.00,95.92
2792.00,95.94
2791.00,95.95
2790.00,95.96
2789.00,95.96
2788.00,95.96
2787.00,95.96
2786.00,95.97
2785.00,95.98
2784.00,95.99
2783.00,96.00
2782.00,96.01
2781.00,96.02
2780.00,96.02
2779.00,96.03
2778.00,96.04
2777.00,96.04
2776.00,96.05
2775.00,96.06
2774.00,96.07
2773.00,96.07
2772.00,96.07
2771.00,96.08
2770.00,96.08
2769.00,96.09
2768.00,96.09
2767.00,96.09
2766.00,96.09
2765.00,96.10
2764.00,96.10
2763.00,96.11
2762.00,96.11
2761.00,96.12
2760.00,96.12
2759.00,96.12
2758.00,96.12
2757.00,96.12
2756.00,96.12
2755.00,96.13
2754.00,96.13
2753.00,96.14
2752.00,96.15
2751.00,96.16
2750.00,96.17
2749.00,96.18
2748.00,96.18
2747.00,96.18
2746.00,96.18
2745.00,96.18
2744.00,96.17
2743.00,96.17
2742.00,96.17
2741.00,96.17
2740.00,96.17
2739.00,96.18
2738.00,96.19
2737.00,96.19
2736.00,96.19
2735.00,96.20
2734.00,96.21
2733.00,96.21
2732.00,96.21
2731.00,96.21
2730.00,96.22
2729.00,96.22
2728.00,96.23
2727.00,96.24
2726.00,96.24
2725.00,96.25
2724.00,96.25
2723.00,96.25
2722.00,96.26
2721.00,96.26
2720.00,96.26
2719.00,96.27
2718.00,96.27
2717.00,96.28
2716.00,96.28
2715.00,96.28
2714.00,96.28
2713.00,96.28
2712.00,96.28
2711.00,96.29
2710.00,96.29
2709.00,96.30
2708.00,96.30
2707.00,96.31
2706.00,96.31
2705.00,96.31
2704.00,96.32
2703.00,96.32
2702.00,96.32
2701.00,96.32
2700.00,96.33
2699.00,96.33
2698.00,96.34
2697.00,96.34
2696.00,96.34
2695.00,96.34
2694.00,96.34
2693.00,96.34
2692.00,96.34
2691.00,96.34
2690.00,96.35
2689.00,96.35
2688.00,96.36
2687.00,96.37
2686.00,96.37
2685.00,96.38
2684.00,96.38
2683.00,96.39
2682.00,96.40
2681.00,96.40
2680.00,96.40
2679.00,96.40
2678.00,96.41
2677.00,96.41
2676.00,96.41
2675.00,96.41
2674.00,96.41
2673.00,96.41
2672.00,96.41
2671.00,96.41
2670.00,96.41
2669.00,96.41
2668.00,96.41
2667.00,96.41
2666.00,96.41
2665.00,96.41
2664.00,96.41
2663.00,96.40
2662.00,96.40
2661.00,96.40
2660.00,96.40
2659.00,96.40
2658.00,96.40
2657.00,96.40
2656.00,96.40
2655.00,96.41
2654.00,96.41
2653.00,96.42
2652.00,96.42
2651.00,96.43
2650.00,96.43
2649.00,96.44
2648.00,96.45
2647.00,96.45
2646.00,96.46
2645.00,96.46
2644.00,96.46
2643.00,96.47
2642.00,96.48
2641.00,96.49
2640.00,96.49
2639.00,96.50
2638.00,96.50
2637.00,96.50
2636.00,96.50
2635.00,96.51
2634.00,96.52
2633.00,96.52
2632.00,96.53
2631.00,96.54
2630.00,96.55
2629.00,96.55
2628.00,96.56
2627.00,96.57
2626.00,96.57
2625.00,96.57
2624.00,96.57
2623.00,96.57
2622.00,96.57
2621.00,96.58
2620.00,96.59
2619.00,96.60
2618.00,96.61
2617.00,96.62
2616.00,96.62
2615.00,96.62
2614.00,96.61
2613.00,96.62
2612.00,96.62
2611.00,96.63
2610.00,96.64
2609.00,96.64
2608.00,96.64
2607.00,96.65
2606.00,96.65
2605.00,96.65
2604.00,96.66
2603.00,96.67
2602.00,96.68
2601.00,96.68
2600.00,96.68
2599.00,96.68
2598.00,96.69
2597.00,96.70
2596.00,96.71
2595.00,96.72
2594.00,96.72
2593.00,96.73
2592.00,96.73
2591.00,96.72
2590.00,96.72
2589.00,96.73
2588.00,96.73
2587.00,96.74
2586.00,96.74
2585.00,96.74
2584.00,96.75
2583.00,96.75
2582.00,96.76
2581.00,96.76
2580.00,96.77
2579.00,96.77
2578.00,96.78
2577.00,96.79
2576.00,96.79
2575.00,96.79
2574.00,96.80
2573.00,96.80
2572.00,96.81
2571.00,96.81
2570.00,96.81
2569.00,96.81
2568.00,96.80
2567.00,96.80
2566.00,96.80
2565.00,96.80
2564.00,96.80
2563.00,96.81
2562.00,96.82
2561.00,96.83
2560.00,96.83
2559.00,96.83
2558.00,96.84
2557.00,96.84
2556.00,96.85
2555.00,96.85
2554.00,96.85
2553.00,96.85
2552.00,96.85
2551.00,96.86
2550.00,96.86
2549.00,96.87
2548.00,96.86
2547.00,96.86
2546.00,96.86
2545.00,96.86
2544.00,96.87
2543.00,96.87
2542.00,96.87
2541.00,96.87
2540.00,96.87
2539.00,96.87
2538.00,96.87
2537.00,96.88
2536.00,96.89
2535.00,96.89
2534.00,96.90
2533.00,96.89
2532.00,96.89
2531.00,96.89
2530.00,96.89
2529.00,96.89
2528.00,96.89
2527.00,96.89
2526.00,96.89
2525.00,96.89
2524.00,96.89
2523.00,96.89
2522.00,96.89
2521.00,96.90
2520.00,96.90
2519.00,96.90
2518.00,96.90
2517.00,96.90
2516.00,96.91
2515.00,96.91
2514.00,96.92
2513.00,96.92
2512.00,96.92
2511.00,96.93
2510.00,96.93
2509.00,96.92
2508.00,96.92
2507.00,96.92
2506.00,96.92
2505.00,96.93
2504.00,96.93
2503.00,96.94
2502.00,96.93
2501.00,96.93
2500.00,96.93
2499.00,96.93
2498.00,96.93
2497.00,96.93
2496.00,96.92
2495.00,96.92
2494.00,96.92
2493.00,96.93
2492.00,96.94
2491.00,96.94
2490.00,96.94
2489.00,96.94
2488.00,96.95
2487.00,96.95
2486.00,96.95
2485.00,96.95
2484.00,96.96
2483.00,96.96
2482.00,96.96
2481.00,96.97
2480.00,96.96
2479.00,96.96
2478.00,96.96
2477.00,96.97
2476.00,96.98
2475.00,96.98
2474.00,96.99
2473.00,96.98
2472.00,96.98
2471.00,96.97
2470.00,96.97
2469.00,96.97
2468.00,96.97
2467.00,96.97
2466.00,96.98
2465.00,96.99
2464.00,97.00
2463.00,97.00
2462.00,96.99
2461.00,96.99
2460.00,96.99
2459.00,96.99
2458.00,96.99
2457.00,96.99
2456.00,96.98
2455.00,96.97
2454.00,96.97
2453.00,96.97
2452.00,96.98
2451.00,96.99
2450.00,96.99
2449.00,97.00
2448.00,96.99
2447.00,96.99
2446.00,97.00
2445.00,97.01
2444.00,97.02
2443.00,97.03
2442.00,97.03
2441.00,97.04
2440.00,97.04
2439.00,97.05
2438.00,97.05
2437.00,97.05
2436.00,97.05
2435.00,97.05
2434.00,97.05
2433.00,97.05
2432.00,97.05
2431.00,97.06
2430.00,97.06
2429.00,97.07
2428.00,97.07
2427.00,97.07
2426.00,97.07
2425.00,97.07
2424.00,97.07
2423.00,97.07
2422.00,97.08
2421.00,97.08
2420.00,97.08
2419.00,97.08
2418.00,97.08
2417.00,97.08
2416.00,97.08
2415.00,97.08
2414.00,97.08
2413.00,97.07
2412.00,97.07
2411.00,97.06
2410.00,97.07
2409.00,97.07
2408.00,97.08
2407.00,97.09
2406.00,97.10
2405.00,97.11
2404.00,97.12
2403.00,97.12
2402.00,97.13
2401.00,97.12
2400.00,97.12
2399.00,97.11
2398.00,97.10
2397.00,97.10
2396.00,97.10
2395.00,97.10
2394.00,97.11
2393.00,97.11
2392.00,97.11
2391.00,97.11
2390.00,97.10
2389.00,97.10
2388.00,97.10
2387.00,97.10
2386.00,97.10
2385.00,97.09
2384.00,97.08
2383.00,97.08
2382.00,97.09
2381.00,97.10
2380.00,97.12
2379.00,97.13
2378.00,97.14
2377.00,97.15
2376.00,97.16
2375.00,97.15
2374.00,97.15
2373.00,97.15
2372.00,97.15
2371.00,97.16
2370.00,97.17
2369.00,97.17
2368.00,97.16
2367.00,97.16
2366.00,97.16
2365.00,97.16
2364.00,97.17
2363.00,97.16
2362.00,97.16
2361.00,97.15
2360.00,97.15
2359.00,97.15
2358.00,97.15
2357.00,97.16
2356.00,97.17
2355.00,97.18
2354.00,97.19
2353.00,97.20
2352.00,97.21
2351.00,97.21
2350.00,97.20
2349.00,97.17
2348.00,97.12
2347.00,97.09
2346.00,97.09
2345.00,97.11
2344.00,97.14
2343.00,97.15
2342.00,97.15
2341.00,97.14
2340.00,97.14
2339.00,97.13
2338.00,97.13
2337.00,97.13
2336.00,97.13
2335.00,97.13
2334.00,97.13
2333.00,97.12
2332.00,97.11
2331.00,97.12
2330.00,97.13
2329.00,97.14
2328.00,97.13
2327.00,97.09
2326.00,97.04
2325.00,96.98
2324.00,96.95
2323.00,96.96
2322.00,97.00
2321.00,97.04
2320.00,97.06
2319.00,97.07
2318.00,97.09
2317.00,97.10
2316.00,97.12
2315.00,97.13
2314.00,97.14
2313.00,97.15
2312.00,97.15
2311.00,97.15
2310.00,97.14
2309.00,97.14
2308.00,97.15
2307.00,97.16
2306.00,97.17
2305.00,97.17
2304.00,97.17
2303.00,97.18
2302.00,97.17
2301.00,97.17
2300.00,97.17
2299.00,97.17
2298.00,97.17
2297.00,97.18
2296.00,97.17
2295.00,97.17
2294.00,97.16
2293.00,97.16
2292.00,97.15
2291.00,97.14
2290.00,97.14
2289.00,97.13
2288.00,97.11
2287.00,97.11
2286.00,97.11
2285.00,97.12
2284.00,97.14
2283.00,97.16
2282.00,97.18
2281.00,97.19
2280.00,97.19
2279.00,97.19
2278.00,97.20
2277.00,97.21
2276.00,97.22
2275.00,97.23
2274.00,97.23
2273.00,97.24
2272.00,97.24
2271.00,97.24
2270.00,97.25
2269.00,97.25
2268.00,97.25
2267.00,97.26
2266.00,97.28
2265.00,97.29
2264.00,97.30
2263.00,97.29
2262.00,97.28
2261.00,97.26
2260.00,97.23
2259.00,97.18
2258.00,97.15
2257.00,97.14
2256.00,97.14
2255.00,97.14
2254.00,97.14
2253.00,97.11
2252.00,97.07
2251.00,97.03
2250.00,96.99
2249.00,96.96
2248.00,96.93
2247.00,96.91
2246.00,96.88
2245.00,96.84
2244.00,96.80
2243.00,96.75
2242.00,96.71
2241.00,96.68
2240.00,96.66
2239.00,96.66
2238.00,96.68
2237.00,96.72
2236.00,96.76
2235.00,96.82
2234.00,96.88
2233.00,96.95
2232.00,97.04
2231.00,97.12
2230.00,97.19
2229.00,97.24
2228.00,97.26
2227.00,97.28
2226.00,97.29
2225.00,97.29
2224.00,97.30
2223.00,97.32
2222.00,97.35
2221.00,97.39
2220.00,97.41
2219.00,97.42
2218.00,97.42
2217.00,97.42
2216.00,97.41
2215.00,97.42
2214.00,97.43
2213.00,97.45
2212.00,97.46
2211.00,97.47
2210.00,97.47
2209.00,97.46
2208.00,97.45
2207.00,97.45
2206.00,97.45
2205.00,97.44
2204.00,97.42
2203.00,97.41
2202.00,97.42
2201.00,97.45
2200.00,97.47
2199.00,97.49
2198.00,97.51
2197.00,97.52
2196.00,97.53
2195.00,97.53
2194.00,97.53
2193.00,97.52
2192.00,97.49
2191.00,97.46
2190.00,97.45
2189.00,97.46
2188.00,97.47
2187.00,97.48
2186.00,97.48
2185.00,97.49
2184.00,97.51
2183.00,97.55
2182.00,97.61
2181.00,97.65
2180.00,97.64
2179.00,97.61
2178.00,97.59
2177.00,97.59
2176.00,97.62
2175.00,97.64
2174.00,97.64
2173.00,97.62
2172.00,97.57
2171.00,97.53
2170.00,97.49
2169.00,97.46
2168.00,97.43
2167.00,97.41
2166.00,97.41
2165.00,97.40
2164.00,97.40
2163.00,97.41
2162.00,97.45
2161.00,97.53
2160.00,97.65
2159.00,97.78
2158.00,97.87
2157.00,97.92
2156.00,97.93
2155.00,97.95
2154.00,97.96
2153.00,97.95
2152.00,97.92
2151.00,97.90
2150.00,97.90
2149.00,97.88
2148.00,97.85
2147.00,97.83
2146.00,97.82
2145.00,97.82
2144.00,97.82
2143.00,97.81
2142.00,97.79
2141.00,97.77
2140.00,97.74
2139.00,97.72
2138.00,97.72
2137.00,97.74
2136.00,97.79
2135.00,97.85
2134.00,97.89
2133.00,97.91
2132.00,97.89
2131.00,97.85
2130.00,97.81
2129.00,97.77
2128.00,97.74
2127.00,97.72
2126.00,97.71
2125.00,97.70
2124.00,97.68
2123.00,97.66
2122.00,97.64
2121.00,97.62
2120.00,97.62
2119.00,97.62
2118.00,97.62
2117.00,97.61
2116.00,97.59
2115.00,97.58
2114.00,97.57
2113.00,97.58
2112.00,97.60
2111.00,97.61
2110.00,97.61
2109.00,97.62
2108.00,97.63
2107.00,97.64
2106.00,97.66
2105.00,97.66
2104.00,97.65
2103.00,97.65
2102.00,97.64
2101.00,97.63
2100.00,97.62
2099.00,97.62
2098.00,97.63
2097.00,97.65
2096.00,97.67
2095.00,97.70
2094.00,97.72
2093.00,97.73
2092.00,97.72
2091.00,97.71
2090.00,97.70
2089.00,97.69
2088.00,97.68
2087.00,97.67
2086.00,97.67
2085.00,97.66
2084.00,97.64
2083.00,97.62
2082.00,97.61
2081.00,97.61
2080.00,97.61
2079.00,97.62
2078.00,97.64
2077.00,97.66
2076.00,97.68
2075.00,97.70
2074.00,97.71
2073.00,97.71
2072.00,97.70
2071.00,97.69
2070.00,97.70
2069.00,97.70
2068.00,97.70
2067.00,97.70
2066.00,97.69
2065.00,97.68
2064.00,97.67
2063.00,97.67
2062.00,97.68
2061.00,97.69
2060.00,97.69
2059.00,97.70
2058.00,97.72
2057.00,97.74
2056.00,97.76
2055.00,97.77
2054.00,97.75
2053.00,97.68
2052.00,97.59
2051.00,97.51
2050.00,97.50
2049.00,97.55
2048.00,97.62
2047.00,97.69
2046.00,97.73
2045.00,97.75
2044.00,97.74
2043.00,97.75
2042.00,97.77
2041.00,97.79
2040.00,97.79
2039.00,97.77
2038.00,97.75
2037.00,97.74
2036.00,97.76
2035.00,97.80
2034.00,97.85
2033.00,97.90
2032.00,97.94
2031.00,97.97
2030.00,98.00
2029.00,98.01
2028.00,98.00
2027.00,97.97
2026.00,97.93
2025.00,97.91
2024.00,97.90
2023.00,97.92
2022.00,97.94
2021.00,97.95
2020.00,97.95
2019.00,97.96
2018.00,97.97
2017.00,97.97
2016.00,97.95
2015.00,97.94
2014.00,97.94
2013.00,97.94
2012.00,97.93
2011.00,97.94
2010.00,97.97
2009.00,98.00
2008.00,98.01
2007.00,98.02
2006.00,98.02
2005.00,98.00
2004.00,97.96
2003.00,97.94
2002.00,97.96
2001.00,97.98
2000.00,97.98
1999.00,97.98
1998.00,97.98
1997.00,97.98
1996.00,97.95
1995.00,97.92
1994.00,97.89
1993.00,97.87
1992.00,97.86
1991.00,97.86
1990.00,97.87
1989.00,97.87
1988.00,97.86
1987.00,97.85
1986.00,97.85
1985.00,97.83
1984.00,97.81
1983.00,97.80
1982.00,97.80
1981.00,97.79
1980.00,97.78
1979.00,97.81
1978.00,97.86
1977.00,97.92
1976.00,97.94
1975.00,97.97
1974.00,98.01
1973.00,98.06
1972.00,98.10
1971.00,98.12
1970.00,98.12
1969.00,98.09
1968.00,98.05
1967.00,98.03
1966.00,98.04
1965.00,98.05
1964.00,98.04
1963.00,98.05
1962.00,98.08
1961.00,98.12
1960.00,98.14
1959.00,98.16
1958.00,98.18
1957.00,98.19
1956.00,98.17
1955.00,98.16
1954.00,98.15
1953.00,98.15
1952.00,98.15
1951.00,98.16
1950.00,98.17
1949.00,98.16
1948.00,98.12
1947.00,98.08
1946.00,98.06
1945.00,98.06
1944.00,98.06
1943.00,98.06
1942.00,98.07
1941.00,98.06
1940.00,98.06
1939.00,98.06
1938.00,98.07
1937.00,98.07
1936.00,98.05
1935.00,98.05
1934.00,98.05
1933.00,98.05
1932.00,98.04
1931.00,98.03
1930.00,98.04
1929.00,98.05
1928.00,98.06
1927.00,98.05
1926.00,98.04
1925.00,98.04
1924.00,98.02
1923.00,98.02
1922.00,98.00
1921.00,97.99
1920.00,97.98
1919.00,97.99
1918.00,98.03
1917.00,98.06
1916.00,98.06
1915.00,98.04
1914.00,98.02
1913.00,98.00
1912.00,97.98
1911.00,97.98
1910.00,97.99
1909.00,98.00
1908.00,98.00
1907.00,98.00
1906.00,98.00
1905.00,98.00
1904.00,97.99
1903.00,97.98
1902.00,97.98
1901.00,97.97
1900.00,97.98
1899.00,97.99
1898.00,98.00
1897.00,98.00
1896.00,98.00
1895.00,97.99
1894.00,97.99
1893.00,97.99
1892.00,97.98
1891.00,97.98
1890.00,98.00
1889.00,98.02
1888.00,98.03
1887.00,98.03
1886.00,98.02
1885.00,98.02
1884.00,98.01
1883.00,98.01
1882.00,98.02
1881.00,98.03
1880.00,98.03
1879.00,98.02
1878.00,98.01
1877.00,98.00
1876.00,98.00
1875.00,98.00
1874.00,98.00
1873.00,98.01
1872.00,98.00
1871.00,98.00
1870.00,98.01
1869.00,98.03
1868.00,98.03
1867.00,98.03
1866.00,98.03
1865.00,98.01
1864.00,98.00
1863.00,98.00
1862.00,98.01
1861.00,98.02
1860.00,98.03
1859.00,98.04
1858.00,98.05
1857.00,98.05
1856.00,98.04
1855.00,98.03
1854.00,98.02
1853.00,98.02
1852.00,98.01
1851.00,98.01
1850.00,98.01
1849.00,98.01
1848.00,98.00
1847.00,97.98
1846.00,97.97
1845.00,97.98
1844.00,98.02
1843.00,98.05
1842.00,98.06
1841.00,98.04
1840.00,98.01
1839.00,98.00
1838.00,98.00
1837.00,98.01
1836.00,98.01
1835.00,98.00
1834.00,97.99
1833.00,97.97
1832.00,97.95
1831.00,97.95
1830.00,97.96
1829.00,97.98
1828.00,97.98
1827.00,97.98
1826.00,97.99
1825.00,98.00
1824.00,98.00
1823.00,97.99
1822.00,97.99
1821.00,97.98
1820.00,97.97
1819.00,97.98
1818.00,97.99
1817.00,97.99
1816.00,97.98
1815.00,97.96
1814.00,97.94
1813.00,97.92
1812.00,97.90
1811.00,97.89
1810.00,97.88
1809.00,97.87
1808.00,97.86
1807.00,97.84
1806.00,97.83
1805.00,97.81
1804.00,97.78
1803.00,97.77
1802.00,97.75
1801.00,97.72
1800.00,97.68
1799.00,97.64
1798.00,97.60
1797.00,97.56
1796.00,97.51
1795.00,97.45
1794.00,97.40
1793.00,97.35
1792.00,97.29
1791.00,97.23
1790.00,97.16
1789.00,97.08
1788.00,96.99
1787.00,96.90
1786.00,96.82
1785.00,96.73
1784.00,96.63
1783.00,96.53
1782.00,96.43
1781.00,96.33
1780.00,96.23
1779.00,96.13
1778.00,96.04
1777.00,95.95
1776.00,95.86
1775.00,95.77
1774.00,95.69
1773.00,95.61
1772.00,95.54
1771.00,95.50
1770.00,95.48
1769.00,95.45
1768.00,95.42
1767.00,95.40
1766.00,95.38
1765.00,95.37
1764.00,95.36
1763.00,95.37
1762.00,95.38
1761.00,95.40
1760.00,95.40
1759.00,95.41
1758.00,95.41
1757.00,95.42
1756.00,95.41
1755.00,95.40
1754.00,95.39
1753.00,95.37
1752.00,95.34
1751.00,95.30
1750.00,95.26
1749.00,95.22
1748.00,95.17
1747.00,95.13
1746.00,95.09
1745.00,95.04
1744.00,94.98
1743.00,94.92
1742.00,94.86
1741.00,94.79
1740.00,94.73
1739.00,94.68
1738.00,94.63
1737.00,94.59
1736.00,94.53
1735.00,94.48
1734.00,94.43
1733.00,94.39
1732.00,94.35
1731.00,94.32
1730.00,94.30
1729.00,94.28
1728.00,94.26
1727.00,94.24
1726.00,94.23
1725.00,94.21
1724.00,94.20
1723.00,94.19
1722.00,94.19
1721.00,94.19
1720.00,94.19
1719.00,94.18
1718.00,94.18
1717.00,94.18
1716.00,94.19
1715.00,94.19
1714.00,94.20
1713.00,94.21
1712.00,94.21
1711.00,94.22
1710.00,94.23
1709.00,94.23
1708.00,94.23
1707.00,94.22
1706.00,94.21
1705.00,94.20
1704.00,94.19
1703.00,94.18
1702.00,94.16
1701.00,94.13
1700.00,94.10
1699.00,94.08
1698.00,94.07
1697.00,94.07
1696.00,94.06
1695.00,94.04
1694.00,94.02
1693.00,93.99
1692.00,93.94
1691.00,93.89
1690.00,93.83
1689.00,93.76
1688.00,93.69
1687.00,93.62
1686.00,93.54
1685.00,93.42
1684.00,93.26
1683.00,93.11
1682.00,92.99
1681.00,92.88
1680.00,92.75
1679.00,92.63
1678.00,92.51
1677.00,92.39
1676.00,92.22
1675.00,92.03
1674.00,91.84
1673.00,91.69
1672.00,91.54
1671.00,91.37
1670.00,91.17
1669.00,90.94
1668.00,90.75
1667.00,90.61
1666.00,90.50
1665.00,90.39
1664.00,90.24
1663.00,90.06
1662.00,89.88
1661.00,89.72
1660.00,89.59
1659.00,89.49
1658.00,89.40
1657.00,89.35
1656.00,89.31
1655.00,89.27
1654.00,89.16
1653.00,88.93
1652.00,88.74
1651.00,88.69
1650.00,88.73
1649.00,88.78
1648.00,88.79
1647.00,88.74
1646.00,88.68
1645.00,88.65
1644.00,88.65
1643.00,88.67
1642.00,88.71
1641.00,88.74
1640.00,88.78
1639.00,88.82
1638.00,88.87
1637.00,88.92
1636.00,88.95
1635.00,88.96
1634.00,89.00
1633.00,89.07
1632.00,89.16
1631.00,89.26
1630.00,89.36
1629.00,89.45
1628.00,89.54
1627.00,89.62
1626.00,89.71
1625.00,89.81
1624.00,89.91
1623.00,90.02
1622.00,90.12
1621.00,90.23
1620.00,90.35
1619.00,90.46
1618.00,90.60
1617.00,90.73
1616.00,90.85
1615.00,90.97
1614.00,91.08
1613.00,91.20
1612.00,91.31
1611.00,91.43
1610.00,91.54
1609.00,91.65
1608.00,91.76
1607.00,91.86
1606.00,91.96
1605.00,92.05
1604.00,92.13
1603.00,92.21
1602.00,92.29
1601.00,92.38
1600.00,92.48
1599.00,92.59
1598.00,92.70
1597.00,92.82
1596.00,92.94
1595.00,93.05
1594.00,93.16
1593.00,93.27
1592.00,93.36
1591.00,93.46
1590.00,93.55
1589.00,93.63
1588.00,93.71
1587.00,93.78
1586.00,93.85
1585.00,93.91
1584.00,93.97
1583.00,94.04
1582.00,94.11
1581.00,94.18
1580.00,94.23
1579.00,94.28
1578.00,94.32
1577.00,94.36
1576.00,94.40
1575.00,94.43
1574.00,94.44
1573.00,94.45
1572.00,94.44
1571.00,94.43
1570.00,94.42
1569.00,94.41
1568.00,94.40
1567.00,94.40
1566.00,94.39
1565.00,94.39
1564.00,94.39
1563.00,94.40
1562.00,94.40
1561.00,94.40
1560.00,94.40
1559.00,94.39
1558.00,94.41
1557.00,94.44
1556.00,94.46
1555.00,94.48
1554.00,94.51
1553.00,94.54
1552.00,94.57
1551.00,94.61
1550.00,94.65
1549.00,94.70
1548.00,94.75
1547.00,94.80
1546.00,94.86
1545.00,94.92
1544.00,94.98
1543.00,95.03
1542.00,95.08
1541.00,95.13
1540.00,95.20
1539.00,95.27
1538.00,95.30
1537.00,95.30
1536.00,95.27
1535.00,95.23
1534.00,95.20
1533.00,95.18
1532.00,95.18
1531.00,95.18
1530.00,95.18
1529.00,95.18
1528.00,95.18
1527.00,95.19
1526.00,95.19
1525.00,95.19
1524.00,95.19
1523.00,95.19
1522.00,95.22
1521.00,95.25
1520.00,95.29
1519.00,95.31
1518.00,95.32
1517.00,95.34
1516.00,95.37
1515.00,95.39
1514.00,95.40
1513.00,95.41
1512.00,95.41
1511.00,95.41
1510.00,95.40
1509.00,95.36
1508.00,95.32
1507.00,95.32
1506.00,95.38
1505.00,95.42
1504.00,95.42
1503.00,95.40
1502.00,95.38
1501.00,95.33
1500.00,95.28
1499.00,95.22
1498.00,95.15
1497.00,95.07
1496.00,94.98
1495.00,94.91
1494.00,94.86
1493.00,94.80
1492.00,94.73
1491.00,94.66
1490.00,94.57
1489.00,94.47
1488.00,94.35
1487.00,94.25
1486.00,94.14
1485.00,94.01
1484.00,93.88
1483.00,93.74
1482.00,93.58
1481.00,93.41
1480.00,93.24
1479.00,93.08
1478.00,92.91
1477.00,92.70
1476.00,92.45
1475.00,92.19
1474.00,91.90
1473.00,91.55
1472.00,91.17
1471.00,90.85
1470.00,90.59
1469.00,90.34
1468.00,90.08
1467.00,89.83
1466.00,89.54
1465.00,89.18
1464.00,88.82
1463.00,88.53
1462.00,88.32
1461.00,88.15
1460.00,87.97
1459.00,87.73
1458.00,87.33
1457.00,86.76
1456.00,86.25
1455.00,85.96
1454.00,85.80
1453.00,85.68
1452.00,85.56
1451.00,85.46
1450.00,85.37
1449.00,85.26
1448.00,85.12
1447.00,84.99
1446.00,84.89
1445.00,84.81
1444.00,84.76
1443.00,84.71
1442.00,84.65
1441.00,84.60
1440.00,84.58
1439.00,84.57
1438.00,84.53
1437.00,84.41
1436.00,84.25
1435.00,84.17
1434.00,84.18
1433.00,84.23
1432.00,84.30
1431.00,84.37
1430.00,84.44
1429.00,84.51
1428.00,84.60
1427.00,84.71
1426.00,84.82
1425.00,84.89
1424.00,84.92
1423.00,84.95
1422.00,84.99
1421.00,85.02
1420.00,85.01
1419.00,84.92
1418.00,84.82
1417.00,84.76
1416.00,84.74
1415.00,84.74
1414.00,84.73
1413.00,84.71
1412.00,84.68
1411.00,84.65
1410.00,84.65
1409.00,84.67
1408.00,84.71
1407.00,84.77
1406.00,84.83
1405.00,84.87
1404.00,84.92
1403.00,84.98
1402.00,85.07
1401.00,85.15
1400.00,85.21
1399.00,85.26
1398.00,85.30
1397.00,85.34
1396.00,85.39
1395.00,85.41
1394.00,85.43
1393.00,85.44
1392.00,85.48
1391.00,85.52
1390.00,85.55
1389.00,85.55
1388.00,85.50
1387.00,85.42
1386.00,85.33
1385.00,85.26
1384.00,85.20
1383.00,85.13
1382.00,85.05
1381.00,84.95
1380.00,84.84
1379.00,84.74
1378.00,84.65
1377.00,84.57
1376.00,84.51
1375.00,84.43
1374.00,84.32
1373.00,84.20
1372.00,84.09
1371.00,84.00
1370.00,83.88
1369.00,83.73
1368.00,83.55
1367.00,83.38
1366.00,83.23
1365.00,83.10
1364.00,82.98
1363.00,82.85
1362.00,82.73
1361.00,82.63
1360.00,82.57
1359.00,82.53
1358.00,82.50
1357.00,82.45
1356.00,82.40
1355.00,82.35
1354.00,82.30
1353.00,82.25
1352.00,82.21
1351.00,82.19
1350.00,82.17
1349.00,82.16
1348.00,82.17
1347.00,82.21
1346.00,82.26
1345.00,82.33
1344.00,82.41
1343.00,82.51
1342.00,82.62
1341.00,82.73
1340.00,82.84
1339.00,82.94
1338.00,83.05
1337.00,83.17
1336.00,83.30
1335.00,83.44
1334.00,83.59
1333.00,83.73
1332.00,83.89
1331.00,84.03
1330.00,84.18
1329.00,84.31
1328.00,84.44
1327.00,84.57
1326.00,84.70
1325.00,84.83
1324.00,84.95
1323.00,85.07
1322.00,85.19
1321.00,85.32
1320.00,85.47
1319.00,85.65
1318.00,85.84
1317.00,86.05
1316.00,86.27
1315.00,86.50
1314.00,86.71
1313.00,86.91
1312.00,87.10
1311.00,87.28
1310.00,87.46
1309.00,87.62
1308.00,87.79
1307.00,87.96
1306.00,88.11
1305.00,88.27
1304.00,88.41
1303.00,88.56
1302.00,88.69
1301.00,88.82
1300.00,88.95
1299.00,89.08
1298.00,89.20
1297.00,89.33
1296.00,89.44
1295.00,89.55
1294.00,89.66
1293.00,89.75
1292.00,89.85
1291.00,89.93
1290.00,90.01
1289.00,90.07
1288.00,90.13
1287.00,90.19
1286.00,90.23
1285.00,90.26
1284.00,90.29
1283.00,90.30
1282.00,90.32
1281.00,90.32
1280.00,90.32
1279.00,90.31
1278.00,90.29
1277.00,90.26
1276.00,90.22
1275.00,90.17
1274.00,90.09
1273.00,89.99
1272.00,89.85
1271.00,89.67
1270.00,89.42
1269.00,89.09
1268.00,88.67
1267.00,88.19
1266.00,87.67
1265.00,87.17
1264.00,86.73
1263.00,86.39
1262.00,86.18
1261.00,86.12
1260.00,86.19
1259.00,86.38
1258.00,86.64
1257.00,86.95
1256.00,87.27
1255.00,87.56
1254.00,87.81
1253.00,87.99
1252.00,88.12
1251.00,88.21
1250.00,88.26
1249.00,88.29
1248.00,88.31
1247.00,88.32
1246.00,88.32
1245.00,88.31
1244.00,88.29
1243.00,88.27
1242.00,88.24
1241.00,88.20
1240.00,88.16
1239.00,88.11
1238.00,88.06
1237.00,88.00
1236.00,87.94
1235.00,87.87
1234.00,87.81
1233.00,87.73
1232.00,87.66
1231.00,87.58
1230.00,87.49
1229.00,87.41
1228.00,87.32
1227.00,87.23
1226.00,87.12
1225.00,87.02
1224.00,86.91
1223.00,86.81
1222.00,86.70
1221.00,86.61
1220.00,86.51
1219.00,86.43
1218.00,86.35
1217.00,86.27
1216.00,86.19
1215.00,86.11
1214.00,86.03
1213.00,85.94
1212.00,85.86
1211.00,85.77
1210.00,85.68
1209.00,85.59
1208.00,85.49
1207.00,85.40
1206.00,85.31
1205.00,85.22
1204.00,85.13
1203.00,85.04
1202.00,84.95
1201.00,84.86
1200.00,84.76
1199.00,84.67
1198.00,84.57
1197.00,84.48
1196.00,84.38
1195.00,84.30
1194.00,84.22
1193.00,84.16
1192.00,84.12
1191.00,84.10
1190.00,84.08
1189.00,84.07
1188.00,84.05
1187.00,84.03
1186.00,84.01
1185.00,83.99
1184.00,83.97
1183.00,83.95
1182.00,83.92
1181.00,83.88
1180.00,83.85
1179.00,83.82
1178.00,83.82
1177.00,83.84
1176.00,83.88
1175.00,83.97
1174.00,84.09
1173.00,84.23
1172.00,84.40
1171.00,84.58
1170.00,84.76
1169.00,84.95
1168.00,85.13
1167.00,85.31
1166.00,85.50
1165.00,85.68
1164.00,85.85
1163.00,86.01
1162.00,86.17
1161.00,86.33
1160.00,86.48
1159.00,86.63
1158.00,86.78
1157.00,86.92
1156.00,87.06
1155.00,87.19
1154.00,87.31
1153.00,87.43
1152.00,87.55
1151.00,87.65
1150.00,87.74
1149.00,87.82
1148.00,87.88
1147.00,87.92
1146.00,87.94
1145.00,87.92
1144.00,87.87
1143.00,87.77
1142.00,87.63
1141.00,87.45
1140.00,87.25
1139.00,87.03
1138.00,86.81
1137.00,86.57
1136.00,86.34
1135.00,86.11
1134.00,85.90
1133.00,85.71
1132.00,85.54
1131.00,85.40
1130.00,85.28
1129.00,85.21
1128.00,85.17
1127.00,85.17
1126.00,85.19
1125.00,85.20
1124.00,85.21
1123.00,85.19
1122.00,85.14
1121.00,85.08
1120.00,85.00
1119.00,84.90
1118.00,84.79
1117.00,84.66
1116.00,84.51
1115.00,84.36
1114.00,84.21
1113.00,84.05
1112.00,83.88
1111.00,83.72
1110.00,83.58
1109.00,83.46
1108.00,83.37
1107.00,83.30
1106.00,83.22
1105.00,83.12
1104.00,83.00
1103.00,82.88
1102.00,82.77
1101.00,82.68
1100.00,82.61
1099.00,82.55
1098.00,82.49
1097.00,82.43
1096.00,82.38
1095.00,82.36
1094.00,82.36
1093.00,82.38
1092.00,82.42
1091.00,82.48
1090.00,82.54
1089.00,82.60
1088.00,82.68
1087.00,82.77
1086.00,82.87
1085.00,82.97
1084.00,83.08
1083.00,83.19
1082.00,83.31
1081.00,83.42
1080.00,83.52
1079.00,83.62
1078.00,83.71
1077.00,83.80
1076.00,83.88
1075.00,83.96
1074.00,84.03
1073.00,84.11
1072.00,84.18
1071.00,84.25
1070.00,84.31
1069.00,84.36
1068.00,84.40
1067.00,84.43
1066.00,84.46
1065.00,84.46
1064.00,84.45
1063.00,84.42
1062.00,84.36
1061.00,84.29
1060.00,84.20
1059.00,84.08
1058.00,83.93
1057.00,83.77
1056.00,83.61
1055.00,83.47
1054.00,83.34
1053.00,83.22
1052.00,83.11
1051.00,82.99
1050.00,82.88
1049.00,82.77
1048.00,82.66
1047.00,82.58
1046.00,82.52
1045.00,82.49
1044.00,82.49
1043.00,82.52
1042.00,82.56
1041.00,82.63
1040.00,82.70
1039.00,82.80
1038.00,82.91
1037.00,83.04
1036.00,83.20
1035.00,83.38
1034.00,83.59
1033.00,83.80
1032.00,84.01
1031.00,84.21
1030.00,84.40
1029.00,84.56
1028.00,84.70
1027.00,84.82
1026.00,84.92
1025.00,85.00
1024.00,85.08
1023.00,85.16
1022.00,85.25
1021.00,85.32
1020.00,85.36
1019.00,85.37
1018.00,85.34
1017.00,85.26
1016.00,85.15
1015.00,85.02
1014.00,84.92
1013.00,84.88
1012.00,84.94
1011.00,85.12
1010.00,85.42
1009.00,85.82
1008.00,86.27
1007.00,86.74
1006.00,87.19
1005.00,87.59
1004.00,87.94
1003.00,88.22
1002.00,88.45
1001.00,88.63
1000.00,88.77
999.00,88.88
998.00,88.98
997.00,89.08
996.00,89.17
995.00,89.26
994.00,89.34
993.00,89.42
992.00,89.48
991.00,89.53
990.00,89.55
989.00,89.54
988.00,89.50
987.00,89.41
986.00,89.28
985.00,89.10
984.00,88.88
983.00,88.62
982.00,88.33
981.00,87.99
980.00,87.62
979.00,87.21
978.00,86.76
977.00,86.27
976.00,85.76
975.00,85.22
974.00,84.67
973.00,84.12
972.00,83.57
971.00,83.07
970.00,82.61
969.00,82.23
968.00,81.94
967.00,81.76
966.00,81.71
965.00,81.80
964.00,82.05
963.00,82.45
962.00,82.99
961.00,83.63
960.00,84.33
959.00,85.06
958.00,85.76
957.00,86.42
956.00,87.02
955.00,87.55
954.00,88.01
953.00,88.41
952.00,88.76
951.00,89.07
950.00,89.35
949.00,89.59
948.00,89.80
947.00,89.99
946.00,90.15
945.00,90.28
944.00,90.40
943.00,90.51
942.00,90.59
941.00,90.66
940.00,90.71
939.00,90.75
938.00,90.79
937.00,90.81
936.00,90.82
935.00,90.82
934.00,90.80
933.00,90.76
932.00,90.71
931.00,90.65
930.00,90.58
929.00,90.51
928.00,90.43
927.00,90.35
926.00,90.28
925.00,90.20
924.00,90.11
923.00,90.02
922.00,89.95
921.00,89.88
920.00,89.82
919.00,89.78
918.00,89.74
917.00,89.71
916.00,89.71
915.00,89.74
914.00,89.79
913.00,89.86
912.00,89.94
911.00,90.04
910.00,90.15
909.00,90.27
908.00,90.41
907.00,90.57
906.00,90.72
905.00,90.87
904.00,91.02
903.00,91.15
902.00,91.28
901.00,91.41
900.00,91.52
899.00,91.62
898.00,91.70
897.00,91.77
896.00,91.83
895.00,91.89
894.00,91.93
893.00,91.97
892.00,92.00
891.00,92.03
890.00,92.06
889.00,92.07
888.00,92.08
887.00,92.08
886.00,92.09
885.00,92.10
884.00,92.11
883.00,92.13
882.00,92.14
881.00,92.14
880.00,92.14
879.00,92.13
878.00,92.12
877.00,92.09
876.00,92.07
875.00,92.06
874.00,92.06
873.00,92.07
872.00,92.08
871.00,92.08
870.00,92.08
869.00,92.08
868.00,92.07
867.00,92.07
866.00,92.06
865.00,92.05
864.00,92.05
863.00,92.04
862.00,92.05
861.00,92.06
860.00,92.06
859.00,92.06
858.00,92.07
857.00,92.07
856.00,92.06
855.00,92.05
854.00,92.02
853.00,91.98
852.00,91.94
851.00,91.90
850.00,91.85
849.00,91.78
848.00,91.71
847.00,91.62
846.00,91.53
845.00,91.43
844.00,91.33
843.00,91.22
842.00,91.10
841.00,90.97
840.00,90.82
839.00,90.65
838.00,90.46
837.00,90.26
836.00,90.04
835.00,89.82
834.00,89.58
833.00,89.32
832.00,89.05
831.00,88.76
830.00,88.46
829.00,88.15
828.00,87.82
827.00,87.48
826.00,87.16
825.00,86.86
824.00,86.64
823.00,86.50
822.00,86.46
821.00,86.50
820.00,86.61
819.00,86.74
818.00,86.87
817.00,86.97
816.00,87.03
815.00,87.04
814.00,86.99
813.00,86.90
812.00,86.77
811.00,86.62
810.00,86.45
809.00,86.27
808.00,86.09
807.00,85.92
806.00,85.75
805.00,85.59
804.00,85.46
803.00,85.37
802.00,85.32
801.00,85.31
800.00,85.34
799.00,85.41
798.00,85.52
797.00,85.68
796.00,85.87
795.00,86.09
794.00,86.33
793.00,86.57
792.00,86.82
791.00,87.07
790.00,87.32
789.00,87.56
788.00,87.79
787.00,87.99
786.00,88.16
785.00,88.31
784.00,88.45
783.00,88.57
782.00,88.67
781.00,88.76
780.00,88.83
779.00,88.88
778.00,88.92
777.00,88.94
776.00,88.95
775.00,88.95
774.00,88.92
773.00,88.89
772.00,88.84
771.00,88.79
770.00,88.74
769.00,88.70
768.00,88.67
767.00,88.64
766.00,88.60
765.00,88.56
764.00,88.52
763.00,88.48
762.00,88.44
761.00,88.40
760.00,88.35
759.00,88.31
758.00,88.26
757.00,88.20
756.00,88.16
755.00,88.12
754.00,88.08
753.00,88.06
752.00,88.04
751.00,88.01
750.00,87.96
749.00,87.90
748.00,87.84
747.00,87.79
746.00,87.74
745.00,87.69
744.00,87.64
743.00,87.59
742.00,87.53
741.00,87.46
740.00,87.39
739.00,87.33
738.00,87.27
737.00,87.22
736.00,87.17
735.00,87.11
734.00,87.05
733.00,86.98
732.00,86.89
731.00,86.82
730.00,86.76
729.00,86.72
728.00,86.68
727.00,86.65
726.00,86.60
725.00,86.54
724.00,86.46
723.00,86.38
722.00,86.29
721.00,86.21
720.00,86.15
719.00,86.14
718.00,86.15
717.00,86.16
716.00,86.15
715.00,86.11
714.00,86.05
713.00,85.97
712.00,85.87
711.00,85.76
710.00,85.63
709.00,85.49
708.00,85.32
707.00,85.13
706.00,84.92
705.00,84.70
704.00,84.47
703.00,84.22
702.00,83.97
701.00,83.73
700.00,83.51
699.00,83.32
698.00,83.17
697.00,83.05
696.00,82.94
695.00,82.82
694.00,82.70
693.00,82.56
692.00,82.41
691.00,82.27
690.00,82.14
689.00,82.03
688.00,81.94
687.00,81.89
686.00,81.86
685.00,81.84
684.00,81.82
683.00,81.80
682.00,81.77
681.00,81.73
680.00,81.68
679.00,81.63
678.00,81.58
677.00,81.52
676.00,81.45
675.00,81.38
674.00,81.32
673.00,81.27
672.00,81.26
671.00,81.30
670.00,81.38
669.00,81.47
668.00,81.47
667.00,81.38
666.00,81.31
665.00,81.29
664.00,81.29
663.00,81.29
662.00,81.29
661.00,81.29
660.00,81.30
659.00,81.32
658.00,81.36
657.00,81.40
656.00,81.44
655.00,81.48
654.00,81.51
653.00,81.53
652.00,81.54
651.00,81.55
650.00,81.56
649.00,81.57
648.00,81.59
647.00,81.62
646.00,81.66
645.00,81.71
644.00,81.74
643.00,81.76
642.00,81.77
641.00,81.77
640.00,81.76
639.00,81.74
638.00,81.70
637.00,81.65
636.00,81.60
635.00,81.55
634.00,81.52
633.00,81.48
632.00,81.44
631.00,81.39
630.00,81.34
629.00,81.29
628.00,81.23
627.00,81.18
626.00,81.12
625.00,81.07
624.00,81.01
623.00,80.94
622.00,80.87
621.00,80.79
620.00,80.70
619.00,80.60
618.00,80.51
617.00,80.41
616.00,80.32
615.00,80.22
614.00,80.12
613.00,80.01
612.00,79.87
611.00,79.72
610.00,79.57
609.00,79.42
608.00,79.29
607.00,79.17
606.00,79.08
605.00,79.00
604.00,78.95
603.00,78.91
602.00,78.89
601.00,78.88
600.00,78.88
599.00,78.91
598.00,78.95
597.00,79.01
596.00,79.06
595.00,79.09
594.00,79.10
593.00,79.07
592.00,79.00
591.00,78.89
590.00,78.77
589.00,78.65
588.00,78.54
587.00,78.44
586.00,78.35
585.00,78.27
584.00,78.20
583.00,78.17
582.00,78.20
581.00,78.25
580.00,78.33
579.00,78.43
578.00,78.53
577.00,78.64
576.00,78.75
575.00,78.86
574.00,78.95
573.00,79.01
572.00,79.04
571.00,79.08
570.00,79.12
569.00,79.16
568.00,79.16
567.00,79.13
566.00,79.11
565.00,79.11
564.00,79.12
563.00,79.15
562.00,79.17
561.00,79.16
560.00,79.13
559.00,79.08
558.00,79.03
557.00,78.98
556.00,78.97
555.00,78.98
554.00,79.01
553.00,79.03
552.00,79.03
551.00,79.02
550.00,79.03
549.00,79.03
548.00,79.05
547.00,79.07
546.00,79.11
545.00,79.14
544.00,79.18
543.00,79.21
542.00,79.23
541.00,79.23
540.00,79.24
539.00,79.26
538.00,79.31
537.00,79.36
536.00,79.40
535.00,79.45
534.00,79.50
533.00,79.56
532.00,79.61
531.00,79.65
530.00,79.65
529.00,79.63
528.00,79.61
527.00,79.61
526.00,79.64
525.00,79.69
524.00,79.74
523.00,79.77
522.00,79.78
521.00,79.77
520.00,79.75
519.00,79.72
518.00,79.67
517.00,79.61
516.00,79.59
515.00,79.63
514.00,79.70
513.00,79.77
512.00,79.82
511.00,79.86
510.00,79.91
509.00,79.96
508.00,79.99
507.00,80.01
506.00,80.03
505.00,80.08
504.00,80.16
503.00,80.26
502.00,80.36
501.00,80.43
500.00,80.48
499.00,80.52
498.00,80.54
497.00,80.54
496.00,80.55
495.00,80.56
494.00,80.58
493.00,80.61
492.00,80.65
491.00,80.68
490.00,80.71
489.00,80.74
488.00,80.78
487.00,80.82
486.00,80.88
485.00,80.95
484.00,81.02
483.00,81.09
482.00,81.13
481.00,81.17
480.00,81.22
479.00,81.27
478.00,81.30
477.00,81.31
476.00,81.31
475.00,81.32
474.00,81.33
473.00,81.36
472.00,81.41
471.00,81.48
470.00,81.53
469.00,81.55
468.00,81.57
467.00,81.62
466.00,81.68
465.00,81.72
464.00,81.73
463.00,81.73
462.00,81.72
461.00,81.73
460.00,81.77
459.00,81.85
458.00,81.91
457.00,81.92
456.00,81.92
455.00,81.96
454.00,82.04
453.00,82.09
452.00,82.09
451.00,82.04
450.00,81.98
449.00,81.94
448.00,81.94
447.00,81.95
446.00,81.96
445.00,81.97
444.00,81.98
443.00,82.01
442.00,82.03
441.00,82.02
440.00,81.96
439.00,81.87
438.00,81.75
437.00,81.64
436.00,81.56
435.00,81.52
434.00,81.47
433.00,81.38
432.00,81.29
431.00,81.25
430.00,81.24
429.00,81.20
428.00,81.09
427.00,80.96
426.00,80.84
425.00,80.80
424.00,80.85
423.00,80.98
422.00,81.08
421.00,81.04
420.00,80.82
419.00,80.52
418.00,80.32
417.00,80.24
416.00,80.21
415.00,80.22
414.00,80.26
413.00,80.29
412.00,80.30
411.00,80.35
410.00,80.48
409.00,80.64
408.00,80.72
407.00,80.60
406.00,80.28
405.00,79.88
404.00,79.56
403.00,79.46
402.00,79.54
401.00,79.69
400.00,79.79
