Created as New Dataset,Sample 714 By Administrator Date Monday, September 21 2026
cm-1,%T
4000.00,99.78
3999.00,99.77
3998.00,99.77
3997.00,99.77
3996.00,99.77
3995.00,99.78
3994.00,99.78
3993.00,99.78
3992.00,99.78
3991.00,99.78
3990.00,99.78
3989.00,99.78
3988.00,99.78
3987.00,99.78
3986.00,99.78
3985.00,99.78
3984.00,99.78
3983.00,99.78
3982.00,99.77
3981.00,99.77
3980.00,99.77
3979.00,99.77
3978.00,99.77
3977.00,99.77
3976.00,99.77
3975.00,99.77
3974.00,99.77
3973.00,99.77
3972.00,99.77
3971.00,99.78
3970.00,99.78
3969.00,99.78
3968.00,99.78
3967.00,99.78
3966.00,99.78
3965.00,99.78
3964.00,99.78
3963.00,99.78
3962.00,99.78
3961.00,99.78
3960.00,99.78
3959.00,99.78
3958.00,99.78
3957.00,99.78
3956.00,99.78
3955.00,99.78
3954.00,99.77
3953.00,99.77
3952.00,99.77
3951.00,99.77
3950.00,99.78
3949.00,99.78
3948.00,99.78
3947.00,99.78
3946.00,99.78
3945.00,99.78
3944.00,99.78
3943.00,99.77
3942.00,99.77
3941.00,99.77
3940.00,99.76
3939.00,99.76
3938.00,99.77
3937.00,99.77
3936.00,99.77
3935.00,99.77
3934.00,99.76
3933.00,99.76
3932.00,99.76
3931.00,99.76
3930.00,99.76
3929.00,99.77
3928.00,99.77
3927.00,99.78
3926.00,99.78
3925.00,99.78
3924.00,99.78
3923.00,99.77
3922.00,99.77
3921.00,99.77
3920.00,99.76
3919.00,99.76
3918.00,99.76
3917.00,99.75
3916.00,99.76
3915.00,99.76
3914.00,99.76
3913.00,99.77
3912.00,99.77
3911.00,99.77
3910.00,99.77
3909.00,99.77
3908.00,99.77
3907.00,99.77
3906.00,99.78
3905.00,99.78
3904.00,99.78
3903.00,99.78
3902.00,99.79
3901.00,99.80
3900.00,99.81
3899.00,99.81
3898.00,99.80
3897.00,99.79
3896.00,99.78
3895.00,99.78
3894.00,99.78
3893.00,99.78
3892.00,99.78
3891.00,99.78
3890.00,99.78
3889.00,99.78
3888.00,99.77
3887.00,99.77
3886.00,99.76
3885.00,99.76
3884.00,99.77
3883.00,99.78
3882.00,99.79
3881.00,99.79
3880.00,99.79
3879.00,99.78
3878.00,99.78
3877.00,99.78
3876.00,99.78
3875.00,99.78
3874.00,99.77
3873.00,99.76
3872.00,99.76
3871.00,99.76
3870.00,99.77
3869.00,99.77
3868.00,99.77
3867.00,99.78
3866.00,99.78
3865.00,99.78
3864.00,99.79
3863.00,99.79
3862.00,99.78
3861.00,99.78
3860.00,99.77
3859.00,99.76
3858.00,99.76
3857.00,99.75
3856.00,99.76
3855.00,99.76
3854.00,99.77
3853.00,99.77
3852.00,99.77
3851.00,99.78
3850.00,99.78
3849.00,99.79
3848.00,99.79
3847.00,99.78
3846.00,99.78
3845.00,99.78
3844.00,99.78
3843.00,99.78
3842.00,99.79
3841.00,99.79
3840.00,99.79
3839.00,99.78
3838.00,99.78
3837.00,99.78
3836.00,99.78
3835.00,99.79
3834.00,99.79
3833.00,99.80
3832.00,99.80
3831.00,99.80
3830.00,99.80
3829.00,99.80
3828.00,99.80
3827.00,99.80
3826.00,99.80
3825.00,99.79
3824.00,99.79
3823.00,99.78
3822.00,99.78
3821.00,99.77
3820.00,99.77
3819.00,99.77
3818.00,99.77
3817.00,99.77
3816.00,99.78
3815.00,99.78
3814.00,99.79
3813.00,99.79
3812.00,99.79
3811.00,99.78
3810.00,99.78
3809.00,99.77
3808.00,99.77
3807.00,99.77
3806.00,99.78
3805.00,99.78
3804.00,99.78
3803.00,99.79
3802.00,99.79
3801.00,99.79
3800.00,99.79
3799.00,99.80
3798.00,99.80
3797.00,99.80
3796.00,99.80
3795.00,99.80
3794.00,99.79
3793.00,99.78
3792.00,99.77
3791.00,99.77
3790.00,99.77
3789.00,99.77
3788.00,99.77
3787.00,99.78
3786.00,99.78
3785.00,99.78
3784.00,99.79
3783.00,99.79
3782.00,99.79
3781.00,99.80
3780.00,99.80
3779.00,99.80
3778.00,99.80
3777.00,99.79
3776.00,99.79
3775.00,99.79
3774.00,99.79
3773.00,99.78
3772.00,99.78
3771.00,99.78
3770.00,99.78
3769.00,99.78
3768.00,99.78
3767.00,99.79
3766.00,99.79
3765.00,99.79
3764.00,99.79
3763.00,99.78
3762.00,99.78
3761.00,99.78
3760.00,99.78
3759.00,99.78
3758.00,99.78
3757.00,99.78
3756.00,99.79
3755.00,99.79
3754.00,99.79
3753.00,99.79
3752.00,99.78
3751.00,99.77
3750.00,99.75
3749.00,99.75
3748.00,99.75
3747.00,99.75
3746.00,99.76
3745.00,99.77
3744.00,99.77
3743.00,99.77
3742.00,99.77
3741.00,99.77
3740.00,99.77
3739.00,99.76
3738.00,99.76
3737.00,99.77
3736.00,99.78
3735.00,99.79
3734.00,99.81
3733.00,99.82
3732.00,99.83
3731.00,99.82
3730.00,99.81
3729.00,99.79
3728.00,99.78
3727.00,99.77
3726.00,99.76
3725.00,99.77
3724.00,99.77
3723.00,99.78
3722.00,99.79
3721.00,99.78
3720.00,99.78
3719.00,99.78
3718.00,99.78
3717.00,99.78
3716.00,99.78
3715.00,99.78
3714.00,99.78
3713.00,99.78
3712.00,99.78
3711.00,99.77
3710.00,99.77
3709.00,99.78
3708.00,99.79
3707.00,99.80
3706.00,99.80
3705.00,99.80
3704.00,99.80
3703.00,99.80
3702.00,99.80
3701.00,99.79
3700.00,99.78
3699.00,99.78
3698.00,99.78
3697.00,99.78
3696.00,99.78
3695.00,99.78
3694.00,99.78
3693.00,99.79
3692.00,99.79
3691.00,99.80
3690.00,99.79
3689.00,99.79
3688.00,99.79
3687.00,99.79
3686.00,99.79
3685.00,99.78
3684.00,99.77
3683.00,99.77
3682.00,99.76
3681.00,99.76
3680.00,99.76
3679.00,99.76
3678.00,99.76
3677.00,99.77
3676.00,99.78
3675.00,99.79
3674.00,99.80
3673.00,99.81
3672.00,99.81
3671.00,99.82
3670.00,99.82
3669.00,99.82
3668.00,99.81
3667.00,99.81
3666.00,99.80
3665.00,99.80
3664.00,99.79
3663.00,99.78
3662.00,99.77
3661.00,99.75
3660.00,99.74
3659.00,99.73
3658.00,99.73
3657.00,99.73
3656.00,99.74
3655.00,99.74
3654.00,99.75
3653.00,99.75
3652.00,99.75
3651.00,99.75
3650.00,99.75
3649.00,99.74
3648.00,99.74
3647.00,99.74
3646.00,99.73
3645.00,99.73
3644.00,99.73
3643.00,99.73
3642.00,99.73
3641.00,99.74
3640.00,99.74
3639.00,99.74
3638.00,99.74
3637.00,99.73
3636.00,99.72
3635.00,99.72
3634.00,99.71
3633.00,99.71
3632.00,99.71
3631.00,99.71
3630.00,99.71
3629.00,99.71
3628.00,99.71
3627.00,99.72
3626.00,99.73
3625.00,99.74
3624.00,99.74
3623.00,99.75
3622.00,99.76
3621.00,99.77
3620.00,99.78
3619.00,99.78
3618.00,99.78
3617.00,99.76
3616.00,99.74
3615.00,99.73
3614.00,99.71
3613.00,99.69
3612.00,99.68
3611.00,99.66
3610.00,99.66
3609.00,99.66
3608.00,99.67
3607.00,99.68
3606.00,99.68
3605.00,99.68
3604.00,99.68
3603.00,99.69
3602.00,99.69
3601.00,99.68
3600.00,99.68
3599.00,99.67
3598.00,99.66
3597.00,99.66
3596.00,99.67
3595.00,99.66
3594.00,99.66
3593.00,99.65
3592.00,99.65
3591.00,99.64
3590.00,99.64
3589.00,99.64
3588.00,99.64
3587.00,99.64
3586.00,99.64
3585.00,99.64
3584.00,99.63
3583.00,99.63
3582.00,99.62
3581.00,99.62
3580.00,99.62
3579.00,99.62
3578.00,99.62
3577.00,99.62
3576.00,99.62
3575.00,99.62
3574.00,99.62
3573.00,99.62
3572.00,99.62
3571.00,99.62
3570.00,99.62
3569.00,99.62
3568.00,99.61
3567.00,99.61
3566.00,99.61
3565.00,99.60
3564.00,99.59
3563.00,99.58
3562.00,99.57
3561.00,99.57
3560.00,99.57
3559.00,99.57
3558.00,99.57
3557.00,99.56
3556.00,99.55
3555.00,99.55
3554.00,99.54
3553.00,99.54
3552.00,99.55
3551.00,99.55
3550.00,99.55
3549.00,99.55
3548.00,99.54
3547.00,99.53
3546.00,99.53
3545.00,99.52
3544.00,99.52
3543.00,99.52
3542.00,99.52
3541.00,99.52
3540.00,99.52
3539.00,99.53
3538.00,99.53
3537.00,99.53
3536.00,99.52
3535.00,99.52
3534.00,99.51
3533.00,99.50
3532.00,99.49
3531.00,99.49
3530.00,99.49
3529.00,99.48
3528.00,99.47
3527.00,99.46
3526.00,99.45
3525.00,99.45
3524.00,99.45
3523.00,99.45
3522.00,99.45
3521.00,99.45
3520.00,99.46
3519.00,99.46
3518.00,99.46
3517.00,99.45
3516.00,99.44
3515.00,99.44
3514.00,99.43
3513.00,99.43
3512.00,99.43
3511.00,99.43
3510.00,99.43
3509.00,99.42
3508.00,99.42
3507.00,99.43
3506.00,99.42
3505.00,99.42
3504.00,99.41
3503.00,99.40
3502.00,99.39
3501.00,99.39
3500.00,99.39
3499.00,99.40
3498.00,99.40
3497.00,99.40
3496.00,99.39
3495.00,99.39
3494.00,99.38
3493.00,99.37
3492.00,99.37
3491.00,99.37
3490.00,99.37
3489.00,99.37
3488.00,99.37
3487.00,99.36
3486.00,99.36
3485.00,99.36
3484.00,99.36
3483.00,99.37
3482.00,99.37
3481.00,99.37
3480.00,99.37
3479.00,99.36
3478.00,99.36
3477.00,99.36
3476.00,99.36
3475.00,99.35
3474.00,99.35
3473.00,99.34
3472.00,99.33
3471.00,99.33
3470.00,99.33
3469.00,99.32
3468.00,99.31
3467.00,99.31
3466.00,99.30
3465.00,99.30
3464.00,99.30
3463.00,99.30
3462.00,99.30
3461.00,99.30
3460.00,99.30
3459.00,99.29
3458.00,99.29
3457.00,99.28
3456.00,99.27
3455.00,99.27
3454.00,99.27
3453.00,99.28
3452.00,99.28
3451.00,99.29
3450.00,99.29
3449.00,99.28
3448.00,99.27
3447.00,99.26
3446.00,99.24
3445.00,99.24
3444.00,99.24
3443.00,99.24
3442.00,99.24
3441.00,99.24
3440.00,99.24
3439.00,99.24
3438.00,99.24
3437.00,99.23
3436.00,99.23
3435.00,99.23
3434.00,99.23
3433.00,99.23
3432.00,99.22
3431.00,99.22
3430.00,99.22
3429.00,99.22
3428.00,99.22
3427.00,99.21
3426.00,99.21
3425.00,99.21
3424.00,99.20
3423.00,99.20
3422.00,99.19
3421.00,99.19
3420.00,99.19
3419.00,99.19
3418.00,99.19
3417.00,99.19
3416.00,99.19
3415.00,99.19
3414.00,99.19
3413.00,99.19
3412.00,99.19
3411.00,99.19
3410.00,99.19
3409.00,99.18
3408.00,99.18
3407.00,99.18
3406.00,99.17
3405.00,99.17
3404.00,99.17
3403.00,99.17
3402.00,99.17
3401.00,99.16
3400.00,99.15
3399.00,99.15
3398.00,99.14
3397.00,99.14
3396.00,99.15
3395.00,99.15
3394.00,99.14
3393.00,99.14
3392.00,99.14
3391.00,99.14
3390.00,99.14
3389.00,99.14
3388.00,99.15
3387.00,99.15
3386.00,99.15
3385.00,99.15
3384.00,99.14
3383.00,99.14
3382.00,99.13
3381.00,99.13
3380.00,99.13
3379.00,99.13
3378.00,99.13
3377.00,99.13
3376.00,99.13
3375.00,99.12
3374.00,99.12
3373.00,99.12
3372.00,99.11
3371.00,99.11
3370.00,99.11
3369.00,99.11
3368.00,99.11
3367.00,99.10
3366.00,99.10
3365.00,99.09
3364.00,99.09
3363.00,99.08
3362.00,99.08
3361.00,99.08
3360.00,99.09
3359.00,99.09
3358.00,99.09
3357.00,99.09
3356.00,99.08
3355.00,99.08
3354.00,99.08
3353.00,99.08
3352.00,99.08
3351.00,99.08
3350.00,99.08
3349.00,99.08
3348.00,99.08
3347.00,99.07
3346.00,99.07
3345.00,99.08
3344.00,99.08
3343.00,99.09
3342.00,99.09
3341.00,99.08
3340.00,99.08
3339.00,99.07
3338.00,99.07
3337.00,99.07
3336.00,99.06
3335.00,99.06
3334.00,99.06
3333.00,99.07
3332.00,99.07
3331.00,99.08
3330.00,99.09
3329.00,99.09
3328.00,99.09
3327.00,99.08
3326.00,99.08
3325.00,99.08
3324.00,99.08
3323.00,99.08
3322.00,99.08
3321.00,99.08
3320.00,99.07
3319.00,99.06
3318.00,99.05
3317.00,99.05
3316.00,99.06
3315.00,99.07
3314.00,99.07
3313.00,99.08
3312.00,99.08
3311.00,99.08
3310.00,99.08
3309.00,99.08
3308.00,99.08
3307.00,99.08
3306.00,99.07
3305.00,99.07
3304.00,99.07
3303.00,99.07
3302.00,99.06
3301.00,99.06
3300.00,99.06
3299.00,99.06
3298.00,99.06
3297.00,99.06
3296.00,99.06
3295.00,99.07
3294.00,99.08
3293.00,99.09
3292.00,99.10
3291.00,99.10
3290.00,99.10
3289.00,99.09
3288.00,99.08
3287.00,99.08
3286.00,99.08
3285.00,99.08
3284.00,99.08
3283.00,99.08
3282.00,99.08
3281.00,99.07
3280.00,99.08
3279.00,99.08
3278.00,99.08
3277.00,99.08
3276.00,99.09
3275.00,99.10
3274.00,99.10
3273.00,99.10
3272.00,99.10
3271.00,99.10
3270.00,99.10
3269.00,99.10
3268.00,99.10
3267.00,99.11
3266.00,99.11
3265.00,99.12
3264.00,99.12
3263.00,99.13
3262.00,99.13
3261.00,99.13
3260.00,99.13
3259.00,99.13
3258.00,99.13
3257.00,99.13
3256.00,99.14
3255.00,99.14
3254.00,99.15
3253.00,99.16
3252.00,99.16
3251.00,99.17
3250.00,99.17
3249.00,99.17
3248.00,99.17
3247.00,99.17
3246.00,99.17
3245.00,99.16
3244.00,99.16
3243.00,99.17
3242.00,99.17
3241.00,99.18
3240.00,99.18
3239.00,99.18
3238.00,99.18
3237.00,99.19
3236.00,99.19
3235.00,99.19
3234.00,99.20
3233.00,99.20
3232.00,99.20
3231.00,99.20
3230.00,99.20
3229.00,99.20
3228.00,99.20
3227.00,99.20
3226.00,99.21
3225.00,99.21
3224.00,99.22
3223.00,99.22
3222.00,99.22
3221.00,99.22
3220.00,99.21
3219.00,99.21
3218.00,99.21
3217.00,99.21
3216.00,99.22
3215.00,99.22
3214.00,99.23
3213.00,99.23
3212.00,99.24
3211.00,99.24
3210.00,99.25
3209.00,99.26
3208.00,99.26
3207.00,99.26
3206.00,99.26
3205.00,99.26
3204.00,99.26
3203.00,99.26
3202.00,99.26
3201.00,99.26
3200.00,99.26
3199.00,99.26
3198.00,99.25
3197.00,99.26
3196.00,99.26
3195.00,99.26
3194.00,99.27
3193.00,99.28
3192.00,99.28
3191.00,99.29
3190.00,99.28
3189.00,99.28
3188.00,99.29
3187.00,99.30
3186.00,99.30
3185.00,99.31
3184.00,99.31
3183.00,99.31
3182.00,99.31
3181.00,99.32
3180.00,99.32
3179.00,99.33
3178.00,99.33
3177.00,99.33
3176.00,99.33
3175.00,99.33
3174.00,99.33
3173.00,99.34
3172.00,99.34
3171.00,99.35
3170.00,99.35
3169.00,99.35
3168.00,99.35
3167.00,99.35
3166.00,99.35
3165.00,99.35
3164.00,99.36
3163.00,99.36
3162.00,99.36
3161.00,99.36
3160.00,99.36
3159.00,99.36
3158.00,99.36
3157.00,99.37
3156.00,99.37
3155.00,99.37
3154.00,99.37
3153.00,99.37
3152.00,99.38
3151.00,99.38
3150.00,99.38
3149.00,99.38
3148.00,99.38
3147.00,99.38
3146.00,99.38
3145.00,99.38
3144.00,99.38
3143.00,99.38
3142.00,99.38
3141.00,99.38
3140.00,99.39
3139.00,99.39
3138.00,99.40
3137.00,99.40
3136.00,99.40
3135.00,99.39
3134.00,99.39
3133.00,99.39
3132.00,99.39
3131.00,99.40
3130.00,99.40
3129.00,99.40
3128.00,99.40
3127.00,99.40
3126.00,99.41
3125.00,99.41
3124.00,99.41
3123.00,99.41
3122.00,99.42
3121.00,99.42
3120.00,99.42
3119.00,99.43
3118.00,99.43
3117.00,99.43
3116.00,99.43
3115.00,99.43
3114.00,99.43
3113.00,99.43
3112.00,99.43
3111.00,99.43
3110.00,99.43
3109.00,99.42
3108.00,99.42
3107.00,99.42
3106.00,99.43
3105.00,99.43
3104.00,99.44
3103.00,99.44
3102.00,99.43
3101.00,99.43
3100.00,99.42
3099.00,99.42
3098.00,99.43
3097.00,99.44
3096.00,99.44
3095.00,99.44
3094.00,99.44
3093.00,99.44
3092.00,99.44
3091.00,99.44
3090.00,99.44
3089.00,99.44
3088.00,99.43
3087.00,99.43
3086.00,99.43
3085.00,99.43
3084.00,99.43
3083.00,99.43
3082.00,99.43
3081.00,99.43
3080.00,99.43
3079.00,99.43
3078.00,99.44
3077.00,99.44
3076.00,99.45
3075.00,99.45
3074.00,99.45
3073.00,99.46
3072.00,99.46
3071.00,99.45
3070.00,99.45
3069.00,99.45
3068.00,99.45
3067.00,99.45
3066.00,99.45
3065.00,99.46
3064.00,99.46
3063.00,99.46
3062.00,99.45
3061.00,99.45
3060.00,99.46
3059.00,99.46
3058.00,99.46
3057.00,99.46
3056.00,99.46
3055.00,99.46
3054.00,99.46
3053.00,99.46
3052.00,99.46
3051.00,99.46
3050.00,99.47
3049.00,99.48
3048.00,99.48
3047.00,99.48
3046.00,99.47
3045.00,99.47
3044.00,99.48
3043.00,99.48
3042.00,99.48
3041.00,99.48
3040.00,99.48
3039.00,99.48
3038.00,99.48
3037.00,99.48
3036.00,99.48
3035.00,99.48
3034.00,99.49
3033.00,99.49
3032.00,99.49
3031.00,99.48
3030.00,99.47
3029.00,99.47
3028.00,99.46
3027.00,99.46
3026.00,99.47
3025.00,99.47
3024.00,99.48
3023.00,99.48
3022.00,99.47
3021.00,99.47
3020.00,99.47
3019.00,99.46
3018.00,99.46
3017.00,99.46
3016.00,99.46
3015.00,99.47
3014.00,99.47
3013.00,99.47
3012.00,99.47
3011.00,99.47
3010.00,99.46
3009.00,99.46
3008.00,99.45
3007.00,99.44
3006.00,99.44
3005.00,99.44
3004.00,99.44
3003.00,99.44
3002.00,99.44
3001.00,99.44
3000.00,99.44
2999.00,99.43
2998.00,99.43
2997.00,99.43
2996.00,99.42
2995.00,99.42
2994.00,99.43
2993.00,99.42
2992.00,99.42
2991.00,99.41
2990.00,99.40
2989.00,99.39
2988.00,99.38
2987.00,99.38
2986.00,99.37
2985.00,99.37
2984.00,99.36
2983.00,99.35
2982.00,99.34
2981.00,99.34
2980.00,99.33
2979.00,99.32
2978.00,99.31
2977.00,99.29
2976.00,99.28
2975.00,99.26
2974.00,99.25
2973.00,99.24
2972.00,99.23
2971.00,99.21
2970.00,99.20
2969.00,99.18
2968.00,99.16
2967.00,99.14
2966.00,99.13
2965.00,99.12
2964.00,99.11
2963.00,99.11
2962.00,99.10
2961.00,99.10
2960.00,99.10
2959.00,99.10
2958.00,99.10
2957.00,99.10
2956.00,99.09
2955.00,99.08
2954.00,99.06
2953.00,99.04
2952.00,99.02
2951.00,99.01
2950.00,98.99
2949.00,98.98
2948.00,98.96
2947.00,98.94
2946.00,98.92
2945.00,98.89
2944.00,98.87
2943.00,98.83
2942.00,98.79
2941.00,98.75
2940.00,98.70
2939.00,98.66
2938.00,98.62
2937.00,98.58
2936.00,98.54
2935.00,98.50
2934.00,98.46
2933.00,98.42
2932.00,98.39
2931.00,98.35
2930.00,98.32
2929.00,98.30
2928.00,98.29
2927.00,98.30
2926.00,98.32
2925.00,98.37
2924.00,98.43
2923.00,98.53
2922.00,98.64
2921.00,98.78
2920.00,98.94
2919.00,99.10
2918.00,99.26
2917.00,99.39
2916.00,99.47
2915.00,99.50
2914.00,99.48
2913.00,99.43
2912.00,99.37
2911.00,99.31
2910.00,99.26
2909.00,99.23
2908.00,99.21
2907.00,99.20
2906.00,99.19
2905.00,99.19
2904.00,99.19
2903.00,99.20
2902.00,99.20
2901.00,99.21
2900.00,99.22
2899.00,99.22
2898.00,99.23
2897.00,99.23
2896.00,99.24
2895.00,99.25
2894.00,99.26
2893.00,99.27
2892.00,99.28
2891.00,99.29
2890.00,99.29
2889.00,99.29
2888.00,99.29
2887.00,99.29
2886.00,99.29
2885.00,99.29
2884.00,99.29
2883.00,99.29
2882.00,99.28
2881.00,99.28
2880.00,99.28
2879.00,99.28
2878.00,99.28
2877.00,99.28
2876.00,99.27
2875.00,99.25
2874.00,99.24
2873.00,99.23
2872.00,99.22
2871.00,99.21
2870.00,99.21
2869.00,99.20
2868.00,99.19
2867.00,99.19
2866.00,99.18
2865.00,99.17
2864.00,99.15
2863.00,99.12
2862.00,99.10
2861.00,99.07
2860.00,99.04
2859.00,99.01
2858.00,98.98
2857.00,98.97
2856.00,98.96
2855.00,98.99
2854.00,99.04
2853.00,99.12
2852.00,99.23
2851.00,99.37
2850.00,99.50
2849.00,99.60
2848.00,99.66
2847.00,99.68
2846.00,99.66
2845.00,99.63
2844.00,99.60
2843.00,99.58
2842.00,99.56
2841.00,99.54
2840.00,99.53
2839.00,99.53
2838.00,99.52
2837.00,99.52
2836.00,99.51
2835.00,99.51
2834.00,99.51
2833.00,99.51
2832.00,99.51
2831.00,99.51
2830.00,99.51
2829.00,99.52
2828.00,99.53
2827.00,99.54
2826.00,99.55
2825.00,99.55
2824.00,99.55
2823.00,99.55
2822.00,99.55
2821.00,99.56
2820.00,99.56
2819.00,99.56
2818.00,99.56
2817.00,99.56
2816.00,99.56
2815.00,99.56
2814.00,99.56
2813.00,99.56
2812.00,99.56
2811.00,99.56
2810.00,99.56
2809.00,99.57
2808.00,99.57
2807.00,99.57
2806.00,99.57
2805.00,99.57
2804.00,99.58
2803.00,99.58
2802.00,99.58
2801.00,99.58
2800.00,99.58
2799.00,99.58
2798.00,99.58
2797.00,99.58
2796.00,99.58
2795.00,99.58
2794.00,99.58
2793.00,99.58
2792.00,99.59
2791.00,99.60
2790.00,99.60
2789.00,99.60
2788.00,99.59
2787.00,99.59
2786.00,99.59
2785.00,99.59
2784.00,99.60
2783.00,99.60
2782.00,99.60
2781.00,99.60
2780.00,99.60
2779.00,99.60
2778.00,99.60
2777.00,99.60
2776.00,99.60
2775.00,99.60
2774.00,99.60
2773.00,99.61
2772.00,99.61
2771.00,99.61
2770.00,99.60
2769.00,99.60
2768.00,99.60
2767.00,99.60
2766.00,99.61
2765.00,99.61
2764.00,99.61
2763.00,99.61
2762.00,99.61
2761.00,99.61
2760.00,99.61
2759.00,99.60
2758.00,99.60
2757.00,99.60
2756.00,99.60
2755.00,99.60
2754.00,99.61
2753.00,99.61
2752.00,99.61
2751.00,99.62
2750.00,99.62
2749.00,99.62
2748.00,99.62
2747.00,99.61
2746.00,99.61
2745.00,99.61
2744.00,99.61
2743.00,99.61
2742.00,99.62
2741.00,99.62
2740.00,99.62
2739.00,99.61
2738.00,99.61
2737.00,99.61
2736.00,99.62
2735.00,99.62
2734.00,99.63
2733.00,99.63
2732.00,99.63
2731.00,99.63
2730.00,99.63
2729.00,99.62
2728.00,99.62
2727.00,99.62
2726.00,99.62
2725.00,99.62
2724.00,99.62
2723.00,99.62
2722.00,99.63
2721.00,99.63
2720.00,99.63
2719.00,99.63
2718.00,99.63
2717.00,99.63
2716.00,99.63
2715.00,99.63
2714.00,99.63
2713.00,99.63
2712.00,99.63
2711.00,99.63
2710.00,99.62
2709.00,99.63
2708.00,99.63
2707.00,99.63
2706.00,99.63
2705.00,99.63
2704.00,99.63
2703.00,99.63
2702.00,99.63
2701.00,99.63
2700.00,99.63
2699.00,99.62
2698.00,99.63
2697.00,99.63
2696.00,99.63
2695.00,99.63
2694.00,99.62
2693.00,99.62
2692.00,99.62
2691.00,99.62
2690.00,99.62
2689.00,99.62
2688.00,99.62
2687.00,99.62
2686.00,99.62
2685.00,99.62
2684.00,99.62
2683.00,99.63
2682.00,99.63
2681.00,99.63
2680.00,99.63
2679.00,99.63
2678.00,99.63
2677.00,99.62
2676.00,99.62
2675.00,99.62
2674.00,99.62
2673.00,99.62
2672.00,99.62
2671.00,99.62
2670.00,99.62
2669.00,99.61
2668.00,99.61
2667.00,99.61
2666.00,99.60
2665.00,99.60
2664.00,99.60
2663.00,99.60
2662.00,99.59
2661.00,99.58
2660.00,99.58
2659.00,99.57
2658.00,99.57
2657.00,99.56
2656.00,99.56
2655.00,99.56
2654.00,99.55
2653.00,99.55
2652.00,99.55
2651.00,99.55
2650.00,99.55
2649.00,99.55
2648.00,99.55
2647.00,99.56
2646.00,99.55
2645.00,99.55
2644.00,99.54
2643.00,99.54
2642.00,99.54
2641.00,99.54
2640.00,99.54
2639.00,99.55
2638.00,99.55
2637.00,99.55
2636.00,99.55
2635.00,99.54
2634.00,99.54
2633.00,99.54
2632.00,99.54
2631.00,99.54
2630.00,99.54
2629.00,99.54
2628.00,99.54
2627.00,99.54
2626.00,99.54
2625.00,99.54
2624.00,99.53
2623.00,99.53
2622.00,99.52
2621.00,99.52
2620.00,99.52
2619.00,99.52
2618.00,99.53
2617.00,99.53
2616.00,99.53
2615.00,99.53
2614.00,99.53
2613.00,99.52
2612.00,99.52
2611.00,99.52
2610.00,99.53
2609.00,99.54
2608.00,99.54
2607.00,99.54
2606.00,99.53
2605.00,99.53
2604.00,99.53
2603.00,99.53
2602.00,99.53
2601.00,99.52
2600.00,99.52
2599.00,99.52
2598.00,99.51
2597.00,99.51
2596.00,99.52
2595.00,99.52
2594.00,99.52
2593.00,99.52
2592.00,99.52
2591.00,99.52
2590.00,99.52
2589.00,99.52
2588.00,99.52
2587.00,99.52
2586.00,99.52
2585.00,99.51
2584.00,99.51
2583.00,99.51
2582.00,99.51
2581.00,99.51
2580.00,99.51
2579.00,99.51
2578.00,99.51
2577.00,99.51
2576.00,99.51
2575.00,99.52
2574.00,99.53
2573.00,99.54
2572.00,99.55
2571.00,99.54
2570.00,99.54
2569.00,99.53
2568.00,99.52
2567.00,99.51
2566.00,99.51
2565.00,99.52
2564.00,99.52
2563.00,99.53
2562.00,99.53
2561.00,99.53
2560.00,99.53
2559.00,99.53
2558.00,99.53
2557.00,99.53
2556.00,99.54
2555.00,99.54
2554.00,99.53
2553.00,99.52
2552.00,99.52
2551.00,99.52
2550.00,99.52
2549.00,99.52
2548.00,99.52
2547.00,99.51
2546.00,99.51
2545.00,99.51
2544.00,99.51
2543.00,99.51
2542.00,99.50
2541.00,99.50
2540.00,99.49
2539.00,99.49
2538.00,99.49
2537.00,99.49
2536.00,99.50
2535.00,99.51
2534.00,99.51
2533.00,99.50
2532.00,99.50
2531.00,99.50
2530.00,99.50
2529.00,99.50
2528.00,99.50
2527.00,99.49
2526.00,99.48
2525.00,99.47
2524.00,99.46
2523.00,99.46
2522.00,99.47
2521.00,99.47
2520.00,99.48
2519.00,99.48
2518.00,99.48
2517.00,99.48
2516.00,99.48
2515.00,99.48
2514.00,99.48
2513.00,99.49
2512.00,99.49
2511.00,99.49
2510.00,99.49
2509.00,99.48
2508.00,99.48
2507.00,99.48
2506.00,99.48
2505.00,99.48
2504.00,99.48
2503.00,99.48
2502.00,99.48
2501.00,99.48
2500.00,99.47
2499.00,99.47
2498.00,99.47
2497.00,99.47
2496.00,99.46
2495.00,99.46
2494.00,99.46
2493.00,99.46
2492.00,99.46
2491.00,99.45
2490.00,99.45
2489.00,99.45
2488.00,99.45
2487.00,99.45
2486.00,99.45
2485.00,99.45
2484.00,99.45
2483.00,99.45
2482.00,99.45
2481.00,99.45
2480.00,99.45
2479.00,99.45
2478.00,99.45
2477.00,99.45
2476.00,99.45
2475.00,99.45
2474.00,99.45
2473.00,99.44
2472.00,99.43
2471.00,99.42
2470.00,99.42
2469.00,99.42
2468.00,99.41
2467.00,99.41
2466.00,99.41
2465.00,99.41
2464.00,99.42
2463.00,99.41
2462.00,99.40
2461.00,99.39
2460.00,99.38
2459.00,99.37
2458.00,99.36
2457.00,99.35
2456.00,99.35
2455.00,99.35
2454.00,99.35
2453.00,99.36
2452.00,99.36
2451.00,99.36
2450.00,99.34
2449.00,99.33
2448.00,99.33
2447.00,99.33
2446.00,99.34
2445.00,99.35
2444.00,99.36
2443.00,99.36
2442.00,99.35
2441.00,99.35
2440.00,99.35
2439.00,99.35
2438.00,99.35
2437.00,99.35
2436.00,99.35
2435.00,99.34
2434.00,99.34
2433.00,99.33
2432.00,99.33
2431.00,99.33
2430.00,99.33
2429.00,99.34
2428.00,99.34
2427.00,99.34
2426.00,99.34
2425.00,99.34
2424.00,99.33
2423.00,99.33
2422.00,99.33
2421.00,99.33
2420.00,99.33
2419.00,99.33
2418.00,99.33
2417.00,99.32
2416.00,99.32
2415.00,99.32
2414.00,99.31
2413.00,99.31
2412.00,99.30
2411.00,99.29
2410.00,99.29
2409.00,99.29
2408.00,99.29
2407.00,99.29
2406.00,99.29
2405.00,99.29
2404.00,99.29
2403.00,99.30
2402.00,99.30
2401.00,99.30
2400.00,99.30
2399.00,99.29
2398.00,99.28
2397.00,99.27
2396.00,99.27
2395.00,99.26
2394.00,99.26
2393.00,99.26
2392.00,99.25
2391.00,99.25
2390.00,99.24
2389.00,99.24
2388.00,99.24
2387.00,99.24
2386.00,99.24
2385.00,99.24
2384.00,99.25
2383.00,99.26
2382.00,99.26
2381.00,99.27
2380.00,99.27
2379.00,99.27
2378.00,99.28
2377.00,99.29
2376.00,99.30
2375.00,99.30
2374.00,99.30
2373.00,99.30
2372.00,99.30
2371.00,99.29
2370.00,99.28
2369.00,99.28
2368.00,99.29
2367.00,99.30
2366.00,99.30
2365.00,99.29
2364.00,99.29
2363.00,99.29
2362.00,99.30
2361.00,99.31
2360.00,99.31
2359.00,99.31
2358.00,99.31
2357.00,99.31
2356.00,99.31
2355.00,99.31
2354.00,99.32
2353.00,99.33
2352.00,99.34
2351.00,99.35
2350.00,99.35
2349.00,99.33
2348.00,99.30
2347.00,99.27
2346.00,99.27
2345.00,99.30
2344.00,99.33
2343.00,99.35
2342.00,99.35
2341.00,99.35
2340.00,99.35
2339.00,99.35
2338.00,99.35
2337.00,99.36
2336.00,99.38
2335.00,99.39
2334.00,99.39
2333.00,99.40
2332.00,99.41
2331.00,99.42
2330.00,99.44
2329.00,99.44
2328.00,99.44
2327.00,99.41
2326.00,99.37
2325.00,99.32
2324.00,99.29
2323.00,99.29
2322.00,99.32
2321.00,99.35
2320.00,99.37
2319.00,99.39
2318.00,99.40
2317.00,99.41
2316.00,99.42
2315.00,99.42
2314.00,99.43
2313.00,99.44
2312.00,99.45
2311.00,99.46
2310.00,99.47
2309.00,99.47
2308.00,99.47
2307.00,99.46
2306.00,99.46
2305.00,99.45
2304.00,99.45
2303.00,99.45
2302.00,99.45
2301.00,99.46
2300.00,99.46
2299.00,99.46
2298.00,99.46
2297.00,99.46
2296.00,99.46
2295.00,99.46
2294.00,99.46
2293.00,99.45
2292.00,99.45
2291.00,99.45
2290.00,99.45
2289.00,99.44
2288.00,99.44
2287.00,99.44
2286.00,99.45
2285.00,99.48
2284.00,99.51
2283.00,99.53
2282.00,99.55
2281.00,99.56
2280.00,99.58
2279.00,99.59
2278.00,99.60
2277.00,99.60
2276.00,99.61
2275.00,99.62
2274.00,99.63
2273.00,99.64
2272.00,99.64
2271.00,99.65
2270.00,99.66
2269.00,99.68
2268.00,99.69
2267.00,99.71
2266.00,99.73
2265.00,99.75
2264.00,99.76
2263.00,99.76
2262.00,99.75
2261.00,99.75
2260.00,99.74
2259.00,99.72
2258.00,99.70
2257.00,99.68
2256.00,99.68
2255.00,99.69
2254.00,99.70
2253.00,99.72
2252.00,99.73
2251.00,99.74
2250.00,99.76
2249.00,99.77
2248.00,99.77
2247.00,99.77
2246.00,99.76
2245.00,99.76
2244.00,99.76
2243.00,99.76
2242.00,99.76
2241.00,99.76
2240.00,99.76
2239.00,99.76
2238.00,99.77
2237.00,99.76
2236.00,99.75
2235.00,99.74
2234.00,99.73
2233.00,99.73
2232.00,99.73
2231.00,99.74
2230.00,99.76
2229.00,99.78
2228.00,99.78
2227.00,99.78
2226.00,99.77
2225.00,99.76
2224.00,99.75
2223.00,99.75
2222.00,99.75
2221.00,99.76
2220.00,99.77
2219.00,99.78
2218.00,99.78
2217.00,99.78
2216.00,99.78
2215.00,99.77
2214.00,99.75
2213.00,99.75
2212.00,99.75
2211.00,99.76
2210.00,99.77
2209.00,99.77
2208.00,99.77
2207.00,99.77
2206.00,99.76
2205.00,99.74
2204.00,99.72
2203.00,99.71
2202.00,99.73
2201.00,99.78
2200.00,99.83
2199.00,99.86
2198.00,99.85
2197.00,99.83
2196.00,99.81
2195.00,99.80
2194.00,99.81
2193.00,99.82
2192.00,99.81
2191.00,99.80
2190.00,99.80
2189.00,99.80
2188.00,99.80
2187.00,99.81
2186.00,99.82
2185.00,99.83
2184.00,99.85
2183.00,99.87
2182.00,99.90
2181.00,99.91
2180.00,99.88
2179.00,99.85
2178.00,99.83
2177.00,99.83
2176.00,99.85
2175.00,99.87
2174.00,99.86
2173.00,99.83
2172.00,99.78
2171.00,99.74
2170.00,99.71
2169.00,99.70
2168.00,99.70
2167.00,99.69
2166.00,99.68
2165.00,99.67
2164.00,99.67
2163.00,99.66
2162.00,99.66
2161.00,99.72
2160.00,99.84
2159.00,100.01
2158.00,100.13
2157.00,100.17
2156.00,100.16
2155.00,100.13
2154.00,100.11
2153.00,100.09
2152.00,100.07
2151.00,100.05
2150.00,100.03
2149.00,100.01
2148.00,100.00
2147.00,100.00
2146.00,100.02
2145.00,100.04
2144.00,100.06
2143.00,100.07
2142.00,100.06
2141.00,100.04
2140.00,100.01
2139.00,99.97
2138.00,99.94
2137.00,99.93
2136.00,99.95
2135.00,99.99
2134.00,100.03
2133.00,100.05
2132.00,100.04
2131.00,100.00
2130.00,99.97
2129.00,99.94
2128.00,99.93
2127.00,99.93
2126.00,99.93
2125.00,99.92
2124.00,99.89
2123.00,99.86
2122.00,99.83
2121.00,99.82
2120.00,99.82
2119.00,99.83
2118.00,99.82
2117.00,99.80
2116.00,99.79
2115.00,99.78
2114.00,99.77
2113.00,99.77
2112.00,99.77
2111.00,99.77
2110.00,99.78
2109.00,99.78
2108.00,99.79
2107.00,99.78
2106.00,99.78
2105.00,99.80
2104.00,99.82
2103.00,99.85
2102.00,99.85
2101.00,99.83
2100.00,99.80
2099.00,99.77
2098.00,99.77
2097.00,99.80
2096.00,99.84
2095.00,99.89
2094.00,99.92
2093.00,99.92
2092.00,99.90
2091.00,99.87
2090.00,99.85
2089.00,99.83
2088.00,99.82
2087.00,99.82
2086.00,99.82
2085.00,99.81
2084.00,99.78
2083.00,99.76
2082.00,99.75
2081.00,99.76
2080.00,99.79
2079.00,99.81
2078.00,99.82
2077.00,99.82
2076.00,99.83
2075.00,99.85
2074.00,99.85
2073.00,99.84
2072.00,99.82
2071.00,99.80
2070.00,99.80
2069.00,99.81
2068.00,99.82
2067.00,99.81
2066.00,99.80
2065.00,99.79
2064.00,99.78
2063.00,99.79
2062.00,99.80
2061.00,99.80
2060.00,99.80
2059.00,99.79
2058.00,99.77
2057.00,99.77
2056.00,99.79
2055.00,99.81
2054.00,99.80
2053.00,99.76
2052.00,99.69
2051.00,99.62
2050.00,99.59
2049.00,99.62
2048.00,99.67
2047.00,99.74
2046.00,99.80
2045.00,99.84
2044.00,99.85
2043.00,99.85
2042.00,99.84
2041.00,99.84
2040.00,99.82
2039.00,99.78
2038.00,99.74
2037.00,99.71
2036.00,99.71
2035.00,99.73
2034.00,99.75
2033.00,99.78
2032.00,99.82
2031.00,99.86
2030.00,99.87
2029.00,99.86
2028.00,99.84
2027.00,99.82
2026.00,99.81
2025.00,99.80
2024.00,99.80
2023.00,99.80
2022.00,99.81
2021.00,99.83
2020.00,99.83
2019.00,99.83
2018.00,99.84
2017.00,99.85
2016.00,99.86
2015.00,99.87
2014.00,99.87
2013.00,99.87
2012.00,99.88
2011.00,99.88
2010.00,99.88
2009.00,99.88
2008.00,99.87
2007.00,99.88
2006.00,99.91
2005.00,99.93
2004.00,99.93
2003.00,99.92
2002.00,99.89
2001.00,99.87
2000.00,99.86
1999.00,99.86
1998.00,99.88
1997.00,99.89
1996.00,99.87
1995.00,99.84
1994.00,99.80
1993.00,99.78
1992.00,99.78
1991.00,99.79
1990.00,99.79
1989.00,99.80
1988.00,99.81
1987.00,99.83
1986.00,99.83
1985.00,99.79
1984.00,99.72
1983.00,99.67
1982.00,99.66
1981.00,99.67
1980.00,99.70
1979.00,99.74
1978.00,99.77
1977.00,99.79
1976.00,99.80
1975.00,99.81
1974.00,99.82
1973.00,99.84
1972.00,99.86
1971.00,99.87
1970.00,99.87
1969.00,99.87
1968.00,99.87
1967.00,99.89
1966.00,99.91
1965.00,99.90
1964.00,99.89
1963.00,99.90
1962.00,99.93
1961.00,99.96
1960.00,99.97
1959.00,99.97
1958.00,99.95
1957.00,99.93
1956.00,99.91
1955.00,99.90
1954.00,99.89
1953.00,99.87
1952.00,99.85
1951.00,99.82
1950.00,99.81
1949.00,99.82
1948.00,99.83
1947.00,99.83
1946.00,99.84
1945.00,99.83
1944.00,99.82
1943.00,99.81
1942.00,99.79
1941.00,99.78
1940.00,99.77
1939.00,99.77
1938.00,99.78
1937.00,99.79
1936.00,99.78
1935.00,99.76
1934.00,99.74
1933.00,99.72
1932.00,99.71
1931.00,99.71
1930.00,99.73
1929.00,99.75
1928.00,99.76
1927.00,99.75
1926.00,99.73
1925.00,99.72
1924.00,99.71
1923.00,99.71
1922.00,99.71
1921.00,99.69
1920.00,99.69
1919.00,99.70
1918.00,99.72
1917.00,99.75
1916.00,99.75
1915.00,99.74
1914.00,99.73
1913.00,99.72
1912.00,99.71
1911.00,99.70
1910.00,99.70
1909.00,99.69
1908.00,99.68
1907.00,99.69
1906.00,99.69
1905.00,99.70
1904.00,99.71
1903.00,99.70
1902.00,99.69
1901.00,99.68
1900.00,99.67
1899.00,99.68
1898.00,99.68
1897.00,99.68
1896.00,99.67
1895.00,99.66
1894.00,99.66
1893.00,99.65
1892.00,99.64
1891.00,99.63
1890.00,99.64
1889.00,99.65
1888.00,99.65
1887.00,99.64
1886.00,99.62
1885.00,99.60
1884.00,99.58
1883.00,99.58
1882.00,99.58
1881.00,99.59
1880.00,99.59
1879.00,99.60
1878.00,99.59
1877.00,99.59
1876.00,99.58
1875.00,99.58
1874.00,99.59
1873.00,99.61
1872.00,99.62
1871.00,99.63
1870.00,99.63
1869.00,99.62
1868.00,99.61
1867.00,99.60
1866.00,99.59
1865.00,99.58
1864.00,99.58
1863.00,99.58
1862.00,99.59
1861.00,99.60
1860.00,99.60
1859.00,99.60
1858.00,99.60
1857.00,99.60
1856.00,99.60
1855.00,99.59
1854.00,99.58
1853.00,99.59
1852.00,99.59
1851.00,99.59
1850.00,99.60
1849.00,99.60
1848.00,99.59
1847.00,99.59
1846.00,99.59
1845.00,99.60
1844.00,99.61
1843.00,99.62
1842.00,99.62
1841.00,99.61
1840.00,99.60
1839.00,99.60
1838.00,99.60
1837.00,99.59
1836.00,99.59
1835.00,99.59
1834.00,99.59
1833.00,99.59
1832.00,99.58
1831.00,99.58
1830.00,99.57
1829.00,99.57
1828.00,99.57
1827.00,99.57
1826.00,99.57
1825.00,99.56
1824.00,99.56
1823.00,99.56
1822.00,99.55
1821.00,99.54
1820.00,99.53
1819.00,99.54
1818.00,99.54
1817.00,99.54
1816.00,99.54
1815.00,99.53
1814.00,99.51
1813.00,99.50
1812.00,99.49
1811.00,99.48
1810.00,99.47
1809.00,99.48
1808.00,99.48
1807.00,99.47
1806.00,99.46
1805.00,99.45
1804.00,99.45
1803.00,99.44
1802.00,99.43
1801.00,99.41
1800.00,99.39
1799.00,99.38
1798.00,99.37
1797.00,99.37
1796.00,99.36
1795.00,99.36
1794.00,99.35
1793.00,99.35
1792.00,99.35
1791.00,99.35
1790.00,99.35
1789.00,99.34
1788.00,99.34
1787.00,99.33
1786.00,99.33
1785.00,99.33
1784.00,99.34
1783.00,99.34
1782.00,99.33
1781.00,99.33
1780.00,99.32
1779.00,99.32
1778.00,99.33
1777.00,99.33
1776.00,99.33
1775.00,99.33
1774.00,99.31
1773.00,99.31
1772.00,99.30
1771.00,99.31
1770.00,99.31
1769.00,99.29
1768.00,99.28
1767.00,99.27
1766.00,99.26
1765.00,99.25
1764.00,99.23
1763.00,99.22
1762.00,99.20
1761.00,99.19
1760.00,99.17
1759.00,99.15
1758.00,99.12
1757.00,99.09
1756.00,99.06
1755.00,99.02
1754.00,98.99
1753.00,98.96
1752.00,98.91
1751.00,98.87
1750.00,98.81
1749.00,98.75
1748.00,98.69
1747.00,98.64
1746.00,98.58
1745.00,98.53
1744.00,98.48
1743.00,98.43
1742.00,98.39
1741.00,98.35
1740.00,98.31
1739.00,98.28
1738.00,98.26
1737.00,98.24
1736.00,98.22
1735.00,98.21
1734.00,98.20
1733.00,98.20
1732.00,98.20
1731.00,98.19
1730.00,98.19
1729.00,98.18
1728.00,98.18
1727.00,98.18
1726.00,98.18
1725.00,98.18
1724.00,98.18
1723.00,98.18
1722.00,98.18
1721.00,98.19
1720.00,98.19
1719.00,98.19
1718.00,98.19
1717.00,98.18
1716.00,98.18
1715.00,98.17
1714.00,98.16
1713.00,98.16
1712.00,98.15
1711.00,98.14
1710.00,98.14
1709.00,98.14
1708.00,98.14
1707.00,98.14
1706.00,98.14
1705.00,98.14
1704.00,98.14
1703.00,98.14
1702.00,98.14
1701.00,98.14
1700.00,98.15
1699.00,98.15
1698.00,98.16
1697.00,98.16
1696.00,98.17
1695.00,98.18
1694.00,98.19
1693.00,98.18
1692.00,98.17
1691.00,98.16
1690.00,98.15
1689.00,98.15
1688.00,98.15
1687.00,98.14
1686.00,98.13
1685.00,98.13
1684.00,98.10
1683.00,98.07
1682.00,98.03
1681.00,97.99
1680.00,97.95
1679.00,97.92
1678.00,97.90
1677.00,97.88
1676.00,97.84
1675.00,97.80
1674.00,97.76
1673.00,97.72
1672.00,97.68
1671.00,97.63
1670.00,97.58
1669.00,97.52
1668.00,97.46
1667.00,97.41
1666.00,97.36
1665.00,97.32
1664.00,97.28
1663.00,97.23
1662.00,97.19
1661.00,97.14
1660.00,97.10
1659.00,97.06
1658.00,97.04
1657.00,97.02
1656.00,97.02
1655.00,97.02
1654.00,97.02
1653.00,97.02
1652.00,97.01
1651.00,97.01
1650.00,97.00
1649.00,97.01
1648.00,97.02
1647.00,97.02
1646.00,97.02
1645.00,97.02
1644.00,97.02
1643.00,97.02
1642.00,97.03
1641.00,97.04
1640.00,97.06
1639.00,97.07
1638.00,97.08
1637.00,97.09
1636.00,97.11
1635.00,97.13
1634.00,97.15
1633.00,97.16
1632.00,97.17
1631.00,97.19
1630.00,97.22
1629.00,97.26
1628.00,97.29
1627.00,97.32
1626.00,97.35
1625.00,97.38
1624.00,97.41
1623.00,97.45
1622.00,97.49
1621.00,97.53
1620.00,97.56
1619.00,97.60
1618.00,97.65
1617.00,97.71
1616.00,97.77
1615.00,97.82
1614.00,97.86
1613.00,97.89
1612.00,97.93
1611.00,97.98
1610.00,98.04
1609.00,98.10
1608.00,98.16
1607.00,98.22
1606.00,98.27
1605.00,98.33
1604.00,98.39
1603.00,98.44
1602.00,98.50
1601.00,98.55
1600.00,98.60
1599.00,98.65
1598.00,98.71
1597.00,98.76
1596.00,98.81
1595.00,98.86
1594.00,98.91
1593.00,98.95
1592.00,98.99
1591.00,99.03
1590.00,99.07
1589.00,99.11
1588.00,99.17
1587.00,99.22
1586.00,99.27
1585.00,99.33
1584.00,99.39
1583.00,99.46
1582.00,99.54
1581.00,99.62
1580.00,99.70
1579.00,99.76
1578.00,99.82
1577.00,99.86
1576.00,99.88
1575.00,99.88
1574.00,99.85
1573.00,99.81
1572.00,99.76
1571.00,99.70
1570.00,99.63
1569.00,99.56
1568.00,99.50
1567.00,99.46
1566.00,99.42
1565.00,99.39
1564.00,99.36
1563.00,99.35
1562.00,99.34
1561.00,99.34
1560.00,99.33
1559.00,99.30
1558.00,99.29
1557.00,99.28
1556.00,99.26
1555.00,99.24
1554.00,99.23
1553.00,99.23
1552.00,99.24
1551.00,99.27
1550.00,99.30
1549.00,99.34
1548.00,99.39
1547.00,99.45
1546.00,99.52
1545.00,99.62
1544.00,99.72
1543.00,99.83
1542.00,99.91
1541.00,99.97
1540.00,99.98
1539.00,99.96
1538.00,99.90
1537.00,99.83
1536.00,99.74
1535.00,99.64
1534.00,99.52
1533.00,99.41
1532.00,99.33
1531.00,99.27
1530.00,99.22
1529.00,99.19
1528.00,99.16
1527.00,99.13
1526.00,99.11
1525.00,99.09
1524.00,99.09
1523.00,99.08
1522.00,99.07
1521.00,99.07
1520.00,99.08
1519.00,99.08
1518.00,99.08
1517.00,99.08
1516.00,99.08
1515.00,99.08
1514.00,99.08
1513.00,99.08
1512.00,99.08
1511.00,99.09
1510.00,99.09
1509.00,99.09
1508.00,99.08
1507.00,99.10
1506.00,99.14
1505.00,99.16
1504.00,99.16
1503.00,99.15
1502.00,99.14
1501.00,99.14
1500.00,99.15
1499.00,99.15
1498.00,99.15
1497.00,99.14
1496.00,99.14
1495.00,99.15
1494.00,99.15
1493.00,99.15
1492.00,99.16
1491.00,99.16
1490.00,99.17
1489.00,99.17
1488.00,99.17
1487.00,99.17
1486.00,99.17
1485.00,99.17
1484.00,99.17
1483.00,99.17
1482.00,99.18
1481.00,99.19
1480.00,99.20
1479.00,99.21
1478.00,99.21
1477.00,99.21
1476.00,99.20
1475.00,99.18
1474.00,99.16
1473.00,99.13
1472.00,99.11
1471.00,99.08
1470.00,99.05
1469.00,99.02
1468.00,98.99
1467.00,98.98
1466.00,98.96
1465.00,98.95
1464.00,98.91
1463.00,98.88
1462.00,98.85
1461.00,98.82
1460.00,98.80
1459.00,98.78
1458.00,98.76
1457.00,98.74
1456.00,98.73
1455.00,98.73
1454.00,98.72
1453.00,98.71
1452.00,98.71
1451.00,98.71
1450.00,98.72
1449.00,98.72
1448.00,98.72
1447.00,98.72
1446.00,98.72
1445.00,98.72
1444.00,98.73
1443.00,98.73
1442.00,98.74
1441.00,98.74
1440.00,98.75
1439.00,98.77
1438.00,98.79
1437.00,98.81
1436.00,98.82
1435.00,98.82
1434.00,98.81
1433.00,98.80
1432.00,98.79
1431.00,98.78
1430.00,98.77
1429.00,98.76
1428.00,98.75
1427.00,98.74
1426.00,98.74
1425.00,98.74
1424.00,98.74
1423.00,98.74
1422.00,98.74
1421.00,98.73
1420.00,98.73
1419.00,98.73
1418.00,98.73
1417.00,98.72
1416.00,98.72
1415.00,98.71
1414.00,98.71
1413.00,98.70
1412.00,98.68
1411.00,98.68
1410.00,98.68
1409.00,98.69
1408.00,98.70
1407.00,98.71
1406.00,98.72
1405.00,98.72
1404.00,98.73
1403.00,98.74
1402.00,98.75
1401.00,98.76
1400.00,98.77
1399.00,98.79
1398.00,98.80
1397.00,98.81
1396.00,98.81
1395.00,98.82
1394.00,98.84
1393.00,98.85
1392.00,98.86
1391.00,98.87
1390.00,98.89
1389.00,98.90
1388.00,98.91
1387.00,98.92
1386.00,98.94
1385.00,98.95
1384.00,98.97
1383.00,98.99
1382.00,99.00
1381.00,99.01
1380.00,99.02
1379.00,99.02
1378.00,99.01
1377.00,99.01
1376.00,99.00
1375.00,98.98
1374.00,98.96
1373.00,98.92
1372.00,98.88
1371.00,98.83
1370.00,98.76
1369.00,98.68
1368.00,98.60
1367.00,98.51
1366.00,98.44
1365.00,98.39
1364.00,98.35
1363.00,98.33
1362.00,98.33
1361.00,98.34
1360.00,98.35
1359.00,98.37
1358.00,98.38
1357.00,98.39
1356.00,98.39
1355.00,98.39
1354.00,98.38
1353.00,98.36
1352.00,98.34
1351.00,98.32
1350.00,98.29
1349.00,98.27
1348.00,98.24
1347.00,98.22
1346.00,98.19
1345.00,98.17
1344.00,98.14
1343.00,98.11
1342.00,98.08
1341.00,98.05
1340.00,98.02
1339.00,97.98
1338.00,97.95
1337.00,97.91
1336.00,97.87
1335.00,97.83
1334.00,97.79
1333.00,97.74
1332.00,97.70
1331.00,97.64
1330.00,97.58
1329.00,97.51
1328.00,97.44
1327.00,97.36
1326.00,97.29
1325.00,97.20
1324.00,97.12
1323.00,97.03
1322.00,96.93
1321.00,96.85
1320.00,96.77
1319.00,96.72
1318.00,96.69
1317.00,96.67
1316.00,96.66
1315.00,96.65
1314.00,96.63
1313.00,96.59
1312.00,96.53
1311.00,96.45
1310.00,96.37
1309.00,96.26
1308.00,96.14
1307.00,96.01
1306.00,95.86
1305.00,95.70
1304.00,95.52
1303.00,95.33
1302.00,95.14
1301.00,94.94
1300.00,94.73
1299.00,94.51
1298.00,94.29
1297.00,94.06
1296.00,93.82
1295.00,93.58
1294.00,93.33
1293.00,93.08
1292.00,92.82
1291.00,92.55
1290.00,92.29
1289.00,92.01
1288.00,91.73
1287.00,91.45
1286.00,91.18
1285.00,90.90
1284.00,90.62
1283.00,90.35
1282.00,90.08
1281.00,89.81
1280.00,89.54
1279.00,89.26
1278.00,88.98
1277.00,88.69
1276.00,88.38
1275.00,88.07
1274.00,87.74
1273.00,87.39
1272.00,87.00
1271.00,86.59
1270.00,86.15
1269.00,85.68
1268.00,85.17
1267.00,84.63
1266.00,84.07
1265.00,83.48
1264.00,82.87
1263.00,82.25
1262.00,81.62
1261.00,80.97
1260.00,80.31
1259.00,79.64
1258.00,78.98
1257.00,78.30
1256.00,77.61
1255.00,76.91
1254.00,76.20
1253.00,75.48
1252.00,74.73
1251.00,73.97
1250.00,73.20
1249.00,72.42
1248.00,71.61
1247.00,70.79
1246.00,69.96
1245.00,69.10
1244.00,68.21
1243.00,67.29
1242.00,66.36
1241.00,65.40
1240.00,64.42
1239.00,63.42
1238.00,62.41
1237.00,61.37
1236.00,60.31
1235.00,59.24
1234.00,58.17
1233.00,57.08
1232.00,55.98
1231.00,54.88
1230.00,53.79
1229.00,52.69
1228.00,51.59
1227.00,50.48
1226.00,49.39
1225.00,48.30
1224.00,47.18
1223.00,46.06
1222.00,44.94
1221.00,43.81
1220.00,42.64
1219.00,41.48
1218.00,40.31
1217.00,39.13
1216.00,37.93
1215.00,36.74
1214.00,35.55
1213.00,34.35
1212.00,33.14
1211.00,31.98
1210.00,30.88
1209.00,29.83
1208.00,28.86
1207.00,28.02
1206.00,27.33
1205.00,26.78
1204.00,26.39
1203.00,26.17
1202.00,26.15
1201.00,26.28
1200.00,26.55
1199.00,26.96
1198.00,27.51
1197.00,28.16
1196.00,28.88
1195.00,29.70
1194.00,30.60
1193.00,31.57
1192.00,32.61
1191.00,33.73
1190.00,34.94
1189.00,36.21
1188.00,37.52
1187.00,38.88
1186.00,40.29
1185.00,41.70
1184.00,43.10
1183.00,44.48
1182.00,45.84
1181.00,47.11
1180.00,48.28
1179.00,49.32
1178.00,50.21
1177.00,50.90
1176.00,51.36
1175.00,51.61
1174.00,51.64
1173.00,51.45
1172.00,51.06
1171.00,50.52
1170.00,49.84
1169.00,49.02
1168.00,48.05
1167.00,46.93
1166.00,45.65
1165.00,44.21
1164.00,42.60
1163.00,40.86
1162.00,39.01
1161.00,37.06
1160.00,35.02
1159.00,32.93
1158.00,30.81
1157.00,28.67
1156.00,26.52
1155.00,24.44
1154.00,22.47
1153.00,20.65
1152.00,19.02
1151.00,17.67
1150.00,16.63
1149.00,15.89
1148.00,15.44
1147.00,15.31
1146.00,15.49
1145.00,15.91
1144.00,16.55
1143.00,17.42
1142.00,18.51
1141.00,19.78
1140.00,21.21
1139.00,22.81
1138.00,24.56
1137.00,26.40
1136.00,28.31
1135.00,30.32
1134.00,32.42
1133.00,34.57
1132.00,36.78
1131.00,39.07
1130.00,41.46
1129.00,43.93
1128.00,46.45
1127.00,48.99
1126.00,51.51
1125.00,53.95
1124.00,56.26
1123.00,58.44
1122.00,60.49
1121.00,62.42
1120.00,64.25
1119.00,65.99
1118.00,67.66
1117.00,69.24
1116.00,70.73
1115.00,72.15
1114.00,73.49
1113.00,74.74
1112.00,75.92
1111.00,77.03
1110.00,78.08
1109.00,79.08
1108.00,80.03
1107.00,80.95
1106.00,81.81
1105.00,82.61
1104.00,83.36
1103.00,84.09
1102.00,84.80
1101.00,85.47
1100.00,86.09
1099.00,86.66
1098.00,87.17
1097.00,87.64
1096.00,88.09
1095.00,88.52
1094.00,88.94
1093.00,89.33
1092.00,89.71
1091.00,90.07
1090.00,90.42
1089.00,90.76
1088.00,91.08
1087.00,91.37
1086.00,91.65
1085.00,91.90
1084.00,92.14
1083.00,92.37
1082.00,92.58
1081.00,92.79
1080.00,92.98
1079.00,93.15
1078.00,93.32
1077.00,93.48
1076.00,93.63
1075.00,93.79
1074.00,93.95
1073.00,94.09
1072.00,94.23
1071.00,94.35
1070.00,94.47
1069.00,94.57
1068.00,94.67
1067.00,94.76
1066.00,94.84
1065.00,94.92
1064.00,94.98
1063.00,95.04
1062.00,95.10
1061.00,95.15
1060.00,95.20
1059.00,95.25
1058.00,95.29
1057.00,95.32
1056.00,95.36
1055.00,95.39
1054.00,95.43
1053.00,95.47
1052.00,95.51
1051.00,95.53
1050.00,95.56
1049.00,95.58
1048.00,95.61
1047.00,95.64
1046.00,95.67
1045.00,95.71
1044.00,95.74
1043.00,95.76
1042.00,95.78
1041.00,95.79
1040.00,95.81
1039.00,95.84
1038.00,95.86
1037.00,95.87
1036.00,95.88
1035.00,95.90
1034.00,95.92
1033.00,95.94
1032.00,95.96
1031.00,95.97
1030.00,95.98
1029.00,95.99
1028.00,95.98
1027.00,95.98
1026.00,95.97
1025.00,95.97
1024.00,95.96
1023.00,95.97
1022.00,95.97
1021.00,95.97
1020.00,95.96
1019.00,95.95
1018.00,95.94
1017.00,95.93
1016.00,95.92
1015.00,95.92
1014.00,95.91
1013.00,95.89
1012.00,95.87
1011.00,95.85
1010.00,95.84
1009.00,95.83
1008.00,95.81
1007.00,95.79
1006.00,95.76
1005.00,95.72
1004.00,95.67
1003.00,95.61
1002.00,95.54
1001.00,95.44
1000.00,95.34
999.00,95.21
998.00,95.06
997.00,94.90
996.00,94.71
995.00,94.50
994.00,94.25
993.00,93.97
992.00,93.65
991.00,93.28
990.00,92.87
989.00,92.41
988.00,91.93
987.00,91.45
986.00,90.97
985.00,90.55
984.00,90.20
983.00,89.98
982.00,89.89
981.00,89.96
980.00,90.17
979.00,90.50
978.00,90.91
977.00,91.38
976.00,91.85
975.00,92.32
974.00,92.77
973.00,93.17
972.00,93.54
971.00,93.87
970.00,94.17
969.00,94.43
968.00,94.65
967.00,94.86
966.00,95.04
965.00,95.20
964.00,95.34
963.00,95.47
962.00,95.58
961.00,95.68
960.00,95.78
959.00,95.87
958.00,95.95
957.00,96.02
956.00,96.09
955.00,96.15
954.00,96.20
953.00,96.25
952.00,96.30
951.00,96.35
950.00,96.39
949.00,96.43
948.00,96.45
947.00,96.47
946.00,96.48
945.00,96.50
944.00,96.52
943.00,96.55
942.00,96.57
941.00,96.59
940.00,96.60
939.00,96.61
938.00,96.62
937.00,96.64
936.00,96.66
935.00,96.69
934.00,96.71
933.00,96.73
932.00,96.75
931.00,96.76
930.00,96.78
929.00,96.81
928.00,96.83
927.00,96.86
926.00,96.89
925.00,96.92
924.00,96.93
923.00,96.95
922.00,96.97
921.00,96.99
920.00,97.01
919.00,97.01
918.00,97.02
917.00,97.02
916.00,97.03
915.00,97.05
914.00,97.06
913.00,97.08
912.00,97.09
911.00,97.08
910.00,97.08
909.00,97.08
908.00,97.09
907.00,97.10
906.00,97.11
905.00,97.11
904.00,97.11
903.00,97.10
902.00,97.10
901.00,97.10
900.00,97.10
899.00,97.10
898.00,97.11
897.00,97.11
896.00,97.11
895.00,97.11
894.00,97.11
893.00,97.10
892.00,97.09
891.00,97.08
890.00,97.07
889.00,97.05
888.00,97.03
887.00,97.01
886.00,96.98
885.00,96.97
884.00,96.96
883.00,96.95
882.00,96.94
881.00,96.93
880.00,96.91
879.00,96.89
878.00,96.86
877.00,96.84
876.00,96.80
875.00,96.78
874.00,96.76
873.00,96.75
872.00,96.73
871.00,96.71
870.00,96.68
869.00,96.65
868.00,96.62
867.00,96.59
866.00,96.57
865.00,96.54
864.00,96.50
863.00,96.46
862.00,96.43
861.00,96.40
860.00,96.37
859.00,96.34
858.00,96.32
857.00,96.31
856.00,96.30
855.00,96.29
854.00,96.28
853.00,96.28
852.00,96.28
851.00,96.29
850.00,96.30
849.00,96.30
848.00,96.30
847.00,96.29
846.00,96.27
845.00,96.27
844.00,96.27
843.00,96.28
842.00,96.29
841.00,96.29
840.00,96.27
839.00,96.25
838.00,96.23
837.00,96.20
836.00,96.17
835.00,96.14
834.00,96.12
833.00,96.09
832.00,96.06
831.00,96.02
830.00,95.97
829.00,95.91
828.00,95.84
827.00,95.79
826.00,95.75
825.00,95.71
824.00,95.69
823.00,95.66
822.00,95.64
821.00,95.63
820.00,95.63
819.00,95.63
818.00,95.64
817.00,95.65
816.00,95.66
815.00,95.68
814.00,95.70
813.00,95.70
812.00,95.69
811.00,95.67
810.00,95.66
809.00,95.64
808.00,95.63
807.00,95.60
806.00,95.55
805.00,95.50
804.00,95.44
803.00,95.38
802.00,95.31
801.00,95.21
800.00,95.10
799.00,94.98
798.00,94.84
797.00,94.71
796.00,94.58
795.00,94.43
794.00,94.28
793.00,94.12
792.00,93.97
791.00,93.83
790.00,93.69
789.00,93.54
788.00,93.40
787.00,93.27
786.00,93.15
785.00,93.06
784.00,92.99
783.00,92.93
782.00,92.90
781.00,92.88
780.00,92.87
779.00,92.86
778.00,92.84
777.00,92.83
776.00,92.81
775.00,92.81
774.00,92.81
773.00,92.81
772.00,92.83
771.00,92.89
770.00,92.97
769.00,93.07
768.00,93.20
767.00,93.34
766.00,93.49
765.00,93.63
764.00,93.75
763.00,93.85
762.00,93.94
761.00,94.00
760.00,94.01
759.00,93.97
758.00,93.83
757.00,93.55
756.00,93.04
755.00,92.26
754.00,91.27
753.00,90.22
752.00,89.35
751.00,88.83
750.00,88.66
749.00,88.77
748.00,89.03
747.00,89.32
746.00,89.55
745.00,89.68
744.00,89.71
743.00,89.71
742.00,89.71
741.00,89.71
740.00,89.70
739.00,89.70
738.00,89.68
737.00,89.67
736.00,89.68
735.00,89.74
734.00,89.85
733.00,89.97
732.00,90.05
731.00,90.07
730.00,90.02
729.00,89.91
728.00,89.77
727.00,89.63
726.00,89.48
725.00,89.32
724.00,89.16
723.00,89.01
722.00,88.88
721.00,88.77
720.00,88.70
719.00,88.70
718.00,88.79
717.00,88.94
716.00,89.15
715.00,89.36
714.00,89.56
713.00,89.71
712.00,89.80
711.00,89.84
710.00,89.87
709.00,89.87
708.00,89.86
707.00,89.86
706.00,89.85
705.00,89.86
704.00,89.88
703.00,89.92
702.00,89.98
701.00,90.05
700.00,90.13
699.00,90.23
698.00,90.35
697.00,90.46
696.00,90.57
695.00,90.68
694.00,90.80
693.00,90.92
692.00,91.03
691.00,91.13
690.00,91.22
689.00,91.29
688.00,91.35
687.00,91.39
686.00,91.41
685.00,91.41
684.00,91.40
683.00,91.37
682.00,91.32
681.00,91.24
680.00,91.13
679.00,91.01
678.00,90.91
677.00,90.81
676.00,90.69
675.00,90.53
674.00,90.36
673.00,90.17
672.00,90.00
671.00,89.87
670.00,89.73
669.00,89.47
668.00,88.95
667.00,88.33
666.00,87.83
665.00,87.39
664.00,86.91
663.00,86.39
662.00,85.87
661.00,85.36
660.00,84.86
659.00,84.36
658.00,83.88
657.00,83.39
656.00,82.85
655.00,82.27
654.00,81.65
653.00,80.96
652.00,80.18
651.00,79.33
650.00,78.39
649.00,77.32
648.00,76.10
647.00,74.74
646.00,73.31
645.00,71.78
644.00,70.20
643.00,68.70
642.00,67.41
641.00,66.41
640.00,65.72
639.00,65.38
638.00,65.37
637.00,65.59
636.00,65.92
635.00,66.29
634.00,66.64
633.00,66.87
632.00,66.92
631.00,66.80
630.00,66.54
629.00,66.19
628.00,65.83
627.00,65.61
626.00,65.66
625.00,66.01
624.00,66.66
623.00,67.58
622.00,68.70
621.00,69.92
620.00,71.18
619.00,72.45
618.00,73.72
617.00,74.97
616.00,76.16
615.00,77.30
614.00,78.40
613.00,79.46
612.00,80.46
611.00,81.38
610.00,82.24
609.00,83.03
608.00,83.78
607.00,84.49
606.00,85.13
605.00,85.72
604.00,86.24
603.00,86.71
602.00,87.12
601.00,87.49
600.00,87.81
599.00,88.10
598.00,88.34
597.00,88.54
596.00,88.70
595.00,88.84
594.00,88.95
593.00,89.05
592.00,89.13
591.00,89.18
590.00,89.21
589.00,89.22
588.00,89.22
587.00,89.22
586.00,89.21
585.00,89.17
584.00,89.11
583.00,89.02
582.00,88.92
581.00,88.81
580.00,88.68
579.00,88.53
578.00,88.34
577.00,88.11
576.00,87.84
575.00,87.57
574.00,87.29
573.00,86.99
572.00,86.65
571.00,86.28
570.00,85.87
569.00,85.41
568.00,84.91
567.00,84.33
566.00,83.69
565.00,82.95
564.00,82.10
563.00,81.10
562.00,79.91
561.00,78.48
560.00,76.71
559.00,74.59
558.00,72.13
557.00,69.53
556.00,67.20
555.00,65.72
554.00,65.51
553.00,66.46
552.00,68.10
551.00,69.86
550.00,71.35
549.00,72.38
548.00,72.97
547.00,73.24
546.00,73.30
545.00,73.22
544.00,73.02
543.00,72.73
542.00,72.34
541.00,71.84
540.00,71.22
539.00,70.53
538.00,69.78
537.00,68.97
536.00,68.06
535.00,67.08
534.00,66.04
533.00,64.91
532.00,63.68
531.00,62.37
530.00,61.02
529.00,59.63
528.00,58.15
527.00,56.60
526.00,54.98
525.00,53.32
524.00,51.67
523.00,50.08
522.00,48.54
521.00,47.01
520.00,45.46
519.00,43.96
518.00,42.53
517.00,41.14
516.00,39.83
515.00,38.69
514.00,37.76
513.00,36.97
512.00,36.31
511.00,35.86
510.00,35.68
509.00,35.71
508.00,35.92
507.00,36.39
506.00,37.16
505.00,38.17
504.00,39.44
503.00,41.06
502.00,43.03
501.00,45.20
500.00,47.44
499.00,49.79
498.00,52.28
497.00,54.85
496.00,57.40
495.00,59.92
494.00,62.42
493.00,64.84
492.00,67.13
491.00,69.29
490.00,71.33
489.00,73.26
488.00,75.06
487.00,76.75
486.00,78.34
485.00,79.81
484.00,81.14
483.00,82.36
482.00,83.46
481.00,84.42
480.00,85.27
479.00,86.04
478.00,86.76
477.00,87.38
476.00,87.87
475.00,88.28
474.00,88.63
473.00,88.96
472.00,89.26
471.00,89.57
470.00,89.87
469.00,90.15
468.00,90.40
467.00,90.65
466.00,90.87
465.00,91.06
464.00,91.23
463.00,91.40
462.00,91.58
461.00,91.74
460.00,91.93
459.00,92.22
458.00,92.57
457.00,92.88
456.00,93.08
455.00,93.22
454.00,93.39
453.00,93.61
452.00,93.85
451.00,94.07
450.00,94.23
449.00,94.34
448.00,94.43
447.00,94.55
446.00,94.69
445.00,94.81
444.00,94.93
443.00,95.07
442.00,95.23
441.00,95.33
440.00,95.37
439.00,95.41
438.00,95.50
437.00,95.62
436.00,95.75
435.00,95.85
434.00,95.90
433.00,95.92
432.00,95.93
431.00,95.97
430.00,96.00
429.00,95.97
428.00,95.86
427.00,95.76
426.00,95.74
425.00,95.77
424.00,95.84
423.00,95.94
422.00,96.02
421.00,96.04
420.00,96.03
419.00,96.10
418.00,96.27
417.00,96.38
416.00,96.36
415.00,96.29
414.00,96.24
413.00,96.14
412.00,95.98
411.00,95.84
410.00,95.88
409.00,96.06
408.00,96.22
407.00,96.28
406.00,96.27
405.00,96.26
404.00,96.27
403.00,96.29
402.00,96.34
401.00,96.33
400.00,96.20
