Created as New Dataset,Sample 705 By Administrator Date Monday, September 21 2026
cm-1,%T
4000.00,99.36
3999.00,99.36
3998.00,99.35
3997.00,99.35
3996.00,99.35
3995.00,99.35
3994.00,99.34
3993.00,99.34
3992.00,99.35
3991.00,99.35
3990.00,99.35
3989.00,99.36
3988.00,99.36
3987.00,99.36
3986.00,99.36
3985.00,99.36
3984.00,99.35
3983.00,99.35
3982.00,99.34
3981.00,99.34
3980.00,99.35
3979.00,99.35
3978.00,99.35
3977.00,99.36
3976.00,99.36
3975.00,99.35
3974.00,99.35
3973.00,99.36
3972.00,99.36
3971.00,99.36
3970.00,99.36
3969.00,99.36
3968.00,99.35
3967.00,99.35
3966.00,99.35
3965.00,99.35
3964.00,99.35
3963.00,99.35
3962.00,99.35
3961.00,99.35
3960.00,99.35
3959.00,99.35
3958.00,99.35
3957.00,99.35
3956.00,99.35
3955.00,99.35
3954.00,99.35
3953.00,99.35
3952.00,99.35
3951.00,99.36
3950.00,99.36
3949.00,99.35
3948.00,99.35
3947.00,99.35
3946.00,99.35
3945.00,99.35
3944.00,99.35
3943.00,99.34
3942.00,99.34
3941.00,99.34
3940.00,99.33
3939.00,99.33
3938.00,99.33
3937.00,99.33
3936.00,99.33
3935.00,99.33
3934.00,99.33
3933.00,99.33
3932.00,99.33
3931.00,99.33
3930.00,99.33
3929.00,99.33
3928.00,99.33
3927.00,99.33
3926.00,99.34
3925.00,99.34
3924.00,99.34
3923.00,99.34
3922.00,99.35
3921.00,99.35
3920.00,99.35
3919.00,99.34
3918.00,99.34
3917.00,99.34
3916.00,99.35
3915.00,99.35
3914.00,99.35
3913.00,99.35
3912.00,99.35
3911.00,99.35
3910.00,99.35
3909.00,99.34
3908.00,99.34
3907.00,99.33
3906.00,99.33
3905.00,99.33
3904.00,99.33
3903.00,99.34
3902.00,99.35
3901.00,99.35
3900.00,99.36
3899.00,99.36
3898.00,99.36
3897.00,99.35
3896.00,99.35
3895.00,99.35
3894.00,99.35
3893.00,99.35
3892.00,99.35
3891.00,99.35
3890.00,99.34
3889.00,99.34
3888.00,99.34
3887.00,99.35
3886.00,99.35
3885.00,99.34
3884.00,99.34
3883.00,99.34
3882.00,99.34
3881.00,99.33
3880.00,99.33
3879.00,99.33
3878.00,99.33
3877.00,99.33
3876.00,99.33
3875.00,99.33
3874.00,99.33
3873.00,99.32
3872.00,99.31
3871.00,99.31
3870.00,99.32
3869.00,99.32
3868.00,99.33
3867.00,99.33
3866.00,99.34
3865.00,99.34
3864.00,99.33
3863.00,99.33
3862.00,99.32
3861.00,99.32
3860.00,99.31
3859.00,99.31
3858.00,99.31
3857.00,99.31
3856.00,99.32
3855.00,99.33
3854.00,99.34
3853.00,99.34
3852.00,99.35
3851.00,99.36
3850.00,99.36
3849.00,99.35
3848.00,99.35
3847.00,99.34
3846.00,99.33
3845.00,99.32
3844.00,99.32
3843.00,99.31
3842.00,99.31
3841.00,99.31
3840.00,99.31
3839.00,99.32
3838.00,99.32
3837.00,99.33
3836.00,99.34
3835.00,99.35
3834.00,99.35
3833.00,99.36
3832.00,99.36
3831.00,99.36
3830.00,99.35
3829.00,99.34
3828.00,99.34
3827.00,99.33
3826.00,99.33
3825.00,99.32
3824.00,99.31
3823.00,99.30
3822.00,99.30
3821.00,99.30
3820.00,99.30
3819.00,99.31
3818.00,99.31
3817.00,99.32
3816.00,99.32
3815.00,99.33
3814.00,99.34
3813.00,99.35
3812.00,99.35
3811.00,99.35
3810.00,99.35
3809.00,99.34
3808.00,99.34
3807.00,99.34
3806.00,99.33
3805.00,99.33
3804.00,99.32
3803.00,99.32
3802.00,99.33
3801.00,99.33
3800.00,99.34
3799.00,99.34
3798.00,99.34
3797.00,99.35
3796.00,99.36
3795.00,99.36
3794.00,99.36
3793.00,99.35
3792.00,99.35
3791.00,99.34
3790.00,99.33
3789.00,99.33
3788.00,99.33
3787.00,99.33
3786.00,99.33
3785.00,99.33
3784.00,99.33
3783.00,99.33
3782.00,99.34
3781.00,99.34
3780.00,99.35
3779.00,99.36
3778.00,99.35
3777.00,99.35
3776.00,99.34
3775.00,99.34
3774.00,99.34
3773.00,99.33
3772.00,99.33
3771.00,99.33
3770.00,99.32
3769.00,99.31
3768.00,99.31
3767.00,99.31
3766.00,99.31
3765.00,99.31
3764.00,99.31
3763.00,99.31
3762.00,99.31
3761.00,99.31
3760.00,99.31
3759.00,99.31
3758.00,99.31
3757.00,99.31
3756.00,99.30
3755.00,99.30
3754.00,99.29
3753.00,99.29
3752.00,99.29
3751.00,99.28
3750.00,99.27
3749.00,99.27
3748.00,99.27
3747.00,99.29
3746.00,99.31
3745.00,99.33
3744.00,99.33
3743.00,99.32
3742.00,99.31
3741.00,99.29
3740.00,99.28
3739.00,99.27
3738.00,99.26
3737.00,99.26
3736.00,99.28
3735.00,99.30
3734.00,99.33
3733.00,99.35
3732.00,99.36
3731.00,99.36
3730.00,99.35
3729.00,99.34
3728.00,99.32
3727.00,99.31
3726.00,99.30
3725.00,99.30
3724.00,99.31
3723.00,99.31
3722.00,99.32
3721.00,99.32
3720.00,99.32
3719.00,99.32
3718.00,99.32
3717.00,99.32
3716.00,99.32
3715.00,99.31
3714.00,99.30
3713.00,99.29
3712.00,99.28
3711.00,99.28
3710.00,99.29
3709.00,99.31
3708.00,99.33
3707.00,99.35
3706.00,99.35
3705.00,99.35
3704.00,99.35
3703.00,99.36
3702.00,99.37
3701.00,99.37
3700.00,99.37
3699.00,99.36
3698.00,99.35
3697.00,99.33
3696.00,99.32
3695.00,99.31
3694.00,99.30
3693.00,99.29
3692.00,99.30
3691.00,99.32
3690.00,99.34
3689.00,99.35
3688.00,99.36
3687.00,99.36
3686.00,99.35
3685.00,99.34
3684.00,99.33
3683.00,99.32
3682.00,99.31
3681.00,99.31
3680.00,99.30
3679.00,99.30
3678.00,99.29
3677.00,99.28
3676.00,99.28
3675.00,99.28
3674.00,99.28
3673.00,99.29
3672.00,99.30
3671.00,99.31
3670.00,99.32
3669.00,99.33
3668.00,99.34
3667.00,99.34
3666.00,99.34
3665.00,99.33
3664.00,99.32
3663.00,99.31
3662.00,99.30
3661.00,99.29
3660.00,99.28
3659.00,99.27
3658.00,99.26
3657.00,99.25
3656.00,99.25
3655.00,99.25
3654.00,99.26
3653.00,99.26
3652.00,99.25
3651.00,99.24
3650.00,99.22
3649.00,99.21
3648.00,99.22
3647.00,99.23
3646.00,99.24
3645.00,99.24
3644.00,99.25
3643.00,99.26
3642.00,99.27
3641.00,99.27
3640.00,99.27
3639.00,99.26
3638.00,99.25
3637.00,99.23
3636.00,99.22
3635.00,99.21
3634.00,99.20
3633.00,99.19
3632.00,99.18
3631.00,99.19
3630.00,99.19
3629.00,99.18
3628.00,99.18
3627.00,99.18
3626.00,99.19
3625.00,99.19
3624.00,99.19
3623.00,99.19
3622.00,99.18
3621.00,99.17
3620.00,99.17
3619.00,99.17
3618.00,99.16
3617.00,99.15
3616.00,99.14
3615.00,99.12
3614.00,99.11
3613.00,99.09
3612.00,99.08
3611.00,99.08
3610.00,99.07
3609.00,99.07
3608.00,99.07
3607.00,99.08
3606.00,99.09
3605.00,99.09
3604.00,99.10
3603.00,99.10
3602.00,99.10
3601.00,99.09
3600.00,99.08
3599.00,99.07
3598.00,99.06
3597.00,99.05
3596.00,99.04
3595.00,99.04
3594.00,99.03
3593.00,99.03
3592.00,99.03
3591.00,99.03
3590.00,99.03
3589.00,99.04
3588.00,99.04
3587.00,99.03
3586.00,99.02
3585.00,99.00
3584.00,99.00
3583.00,99.00
3582.00,99.00
3581.00,99.00
3580.00,99.00
3579.00,99.01
3578.00,99.01
3577.00,99.01
3576.00,99.01
3575.00,99.01
3574.00,99.00
3573.00,98.98
3572.00,98.97
3571.00,98.96
3570.00,98.95
3569.00,98.94
3568.00,98.94
3567.00,98.94
3566.00,98.94
3565.00,98.94
3564.00,98.94
3563.00,98.93
3562.00,98.93
3561.00,98.93
3560.00,98.93
3559.00,98.93
3558.00,98.93
3557.00,98.93
3556.00,98.92
3555.00,98.91
3554.00,98.90
3553.00,98.89
3552.00,98.89
3551.00,98.89
3550.00,98.89
3549.00,98.88
3548.00,98.87
3547.00,98.86
3546.00,98.86
3545.00,98.86
3544.00,98.86
3543.00,98.86
3542.00,98.86
3541.00,98.86
3540.00,98.87
3539.00,98.87
3538.00,98.87
3537.00,98.87
3536.00,98.86
3535.00,98.85
3534.00,98.85
3533.00,98.84
3532.00,98.83
3531.00,98.82
3530.00,98.81
3529.00,98.81
3528.00,98.80
3527.00,98.80
3526.00,98.80
3525.00,98.80
3524.00,98.80
3523.00,98.80
3522.00,98.80
3521.00,98.80
3520.00,98.80
3519.00,98.80
3518.00,98.80
3517.00,98.79
3516.00,98.79
3515.00,98.78
3514.00,98.78
3513.00,98.78
3512.00,98.77
3511.00,98.77
3510.00,98.76
3509.00,98.76
3508.00,98.76
3507.00,98.76
3506.00,98.76
3505.00,98.75
3504.00,98.74
3503.00,98.73
3502.00,98.73
3501.00,98.72
3500.00,98.73
3499.00,98.73
3498.00,98.73
3497.00,98.73
3496.00,98.72
3495.00,98.72
3494.00,98.72
3493.00,98.71
3492.00,98.71
3491.00,98.71
3490.00,98.70
3489.00,98.69
3488.00,98.69
3487.00,98.68
3486.00,98.68
3485.00,98.68
3484.00,98.68
3483.00,98.68
3482.00,98.69
3481.00,98.69
3480.00,98.68
3479.00,98.67
3478.00,98.66
3477.00,98.66
3476.00,98.66
3475.00,98.66
3474.00,98.67
3473.00,98.67
3472.00,98.67
3471.00,98.66
3470.00,98.66
3469.00,98.65
3468.00,98.64
3467.00,98.64
3466.00,98.63
3465.00,98.63
3464.00,98.63
3463.00,98.63
3462.00,98.63
3461.00,98.63
3460.00,98.63
3459.00,98.63
3458.00,98.62
3457.00,98.62
3456.00,98.61
3455.00,98.61
3454.00,98.60
3453.00,98.60
3452.00,98.60
3451.00,98.59
3450.00,98.59
3449.00,98.58
3448.00,98.57
3447.00,98.57
3446.00,98.56
3445.00,98.56
3444.00,98.56
3443.00,98.56
3442.00,98.57
3441.00,98.57
3440.00,98.57
3439.00,98.57
3438.00,98.57
3437.00,98.56
3436.00,98.56
3435.00,98.56
3434.00,98.56
3433.00,98.56
3432.00,98.57
3431.00,98.57
3430.00,98.57
3429.00,98.56
3428.00,98.56
3427.00,98.56
3426.00,98.56
3425.00,98.56
3424.00,98.56
3423.00,98.55
3422.00,98.55
3421.00,98.55
3420.00,98.54
3419.00,98.54
3418.00,98.54
3417.00,98.54
3416.00,98.54
3415.00,98.55
3414.00,98.56
3413.00,98.56
3412.00,98.56
3411.00,98.56
3410.00,98.55
3409.00,98.54
3408.00,98.54
3407.00,98.53
3406.00,98.53
3405.00,98.52
3404.00,98.53
3403.00,98.53
3402.00,98.54
3401.00,98.55
3400.00,98.55
3399.00,98.54
3398.00,98.54
3397.00,98.53
3396.00,98.53
3395.00,98.53
3394.00,98.53
3393.00,98.54
3392.00,98.54
3391.00,98.54
3390.00,98.55
3389.00,98.55
3388.00,98.55
3387.00,98.55
3386.00,98.55
3385.00,98.55
3384.00,98.55
3383.00,98.55
3382.00,98.54
3381.00,98.54
3380.00,98.54
3379.00,98.54
3378.00,98.54
3377.00,98.55
3376.00,98.55
3375.00,98.54
3374.00,98.54
3373.00,98.53
3372.00,98.53
3371.00,98.53
3370.00,98.53
3369.00,98.52
3368.00,98.52
3367.00,98.52
3366.00,98.52
3365.00,98.52
3364.00,98.52
3363.00,98.52
3362.00,98.53
3361.00,98.53
3360.00,98.53
3359.00,98.54
3358.00,98.54
3357.00,98.54
3356.00,98.53
3355.00,98.54
3354.00,98.54
3353.00,98.55
3352.00,98.55
3351.00,98.55
3350.00,98.55
3349.00,98.55
3348.00,98.55
3347.00,98.54
3346.00,98.55
3345.00,98.55
3344.00,98.55
3343.00,98.56
3342.00,98.55
3341.00,98.55
3340.00,98.55
3339.00,98.55
3338.00,98.55
3337.00,98.56
3336.00,98.56
3335.00,98.56
3334.00,98.56
3333.00,98.57
3332.00,98.57
3331.00,98.57
3330.00,98.57
3329.00,98.58
3328.00,98.58
3327.00,98.58
3326.00,98.57
3325.00,98.57
3324.00,98.57
3323.00,98.58
3322.00,98.58
3321.00,98.58
3320.00,98.58
3319.00,98.58
3318.00,98.59
3317.00,98.59
3316.00,98.59
3315.00,98.59
3314.00,98.59
3313.00,98.59
3312.00,98.59
3311.00,98.58
3310.00,98.58
3309.00,98.58
3308.00,98.58
3307.00,98.59
3306.00,98.60
3305.00,98.60
3304.00,98.59
3303.00,98.59
3302.00,98.58
3301.00,98.58
3300.00,98.58
3299.00,98.58
3298.00,98.58
3297.00,98.59
3296.00,98.59
3295.00,98.59
3294.00,98.60
3293.00,98.61
3292.00,98.61
3291.00,98.61
3290.00,98.60
3289.00,98.60
3288.00,98.59
3287.00,98.59
3286.00,98.60
3285.00,98.60
3284.00,98.60
3283.00,98.60
3282.00,98.60
3281.00,98.60
3280.00,98.60
3279.00,98.60
3278.00,98.60
3277.00,98.61
3276.00,98.61
3275.00,98.61
3274.00,98.61
3273.00,98.61
3272.00,98.62
3271.00,98.62
3270.00,98.62
3269.00,98.63
3268.00,98.63
3267.00,98.63
3266.00,98.64
3265.00,98.64
3264.00,98.64
3263.00,98.65
3262.00,98.65
3261.00,98.65
3260.00,98.65
3259.00,98.66
3258.00,98.66
3257.00,98.67
3256.00,98.67
3255.00,98.68
3254.00,98.69
3253.00,98.69
3252.00,98.69
3251.00,98.69
3250.00,98.68
3249.00,98.68
3248.00,98.68
3247.00,98.69
3246.00,98.69
3245.00,98.70
3244.00,98.70
3243.00,98.70
3242.00,98.70
3241.00,98.71
3240.00,98.72
3239.00,98.73
3238.00,98.73
3237.00,98.74
3236.00,98.73
3235.00,98.73
3234.00,98.73
3233.00,98.73
3232.00,98.74
3231.00,98.74
3230.00,98.74
3229.00,98.75
3228.00,98.75
3227.00,98.75
3226.00,98.75
3225.00,98.75
3224.00,98.75
3223.00,98.75
3222.00,98.76
3221.00,98.76
3220.00,98.77
3219.00,98.77
3218.00,98.77
3217.00,98.78
3216.00,98.78
3215.00,98.78
3214.00,98.78
3213.00,98.78
3212.00,98.78
3211.00,98.78
3210.00,98.78
3209.00,98.79
3208.00,98.80
3207.00,98.80
3206.00,98.80
3205.00,98.80
3204.00,98.80
3203.00,98.80
3202.00,98.80
3201.00,98.80
3200.00,98.80
3199.00,98.80
3198.00,98.81
3197.00,98.81
3196.00,98.82
3195.00,98.82
3194.00,98.83
3193.00,98.83
3192.00,98.83
3191.00,98.83
3190.00,98.83
3189.00,98.83
3188.00,98.84
3187.00,98.84
3186.00,98.85
3185.00,98.85
3184.00,98.84
3183.00,98.84
3182.00,98.84
3181.00,98.84
3180.00,98.85
3179.00,98.87
3178.00,98.87
3177.00,98.88
3176.00,98.88
3175.00,98.88
3174.00,98.88
3173.00,98.88
3172.00,98.89
3171.00,98.89
3170.00,98.90
3169.00,98.90
3168.00,98.91
3167.00,98.91
3166.00,98.91
3165.00,98.91
3164.00,98.92
3163.00,98.92
3162.00,98.91
3161.00,98.91
3160.00,98.91
3159.00,98.91
3158.00,98.92
3157.00,98.92
3156.00,98.92
3155.00,98.92
3154.00,98.92
3153.00,98.93
3152.00,98.93
3151.00,98.94
3150.00,98.95
3149.00,98.95
3148.00,98.95
3147.00,98.95
3146.00,98.94
3145.00,98.94
3144.00,98.94
3143.00,98.94
3142.00,98.94
3141.00,98.94
3140.00,98.95
3139.00,98.95
3138.00,98.95
3137.00,98.96
3136.00,98.96
3135.00,98.96
3134.00,98.96
3133.00,98.96
3132.00,98.97
3131.00,98.97
3130.00,98.97
3129.00,98.97
3128.00,98.97
3127.00,98.97
3126.00,98.97
3125.00,98.97
3124.00,98.97
3123.00,98.98
3122.00,98.98
3121.00,98.99
3120.00,98.99
3119.00,98.99
3118.00,98.99
3117.00,98.99
3116.00,99.00
3115.00,99.00
3114.00,99.01
3113.00,99.01
3112.00,99.01
3111.00,99.02
3110.00,99.02
3109.00,99.01
3108.00,99.01
3107.00,99.00
3106.00,99.00
3105.00,99.00
3104.00,99.00
3103.00,99.00
3102.00,99.00
3101.00,99.00
3100.00,99.01
3099.00,99.01
3098.00,99.02
3097.00,99.03
3096.00,99.03
3095.00,99.03
3094.00,99.02
3093.00,99.02
3092.00,99.02
3091.00,99.03
3090.00,99.03
3089.00,99.03
3088.00,99.03
3087.00,99.03
3086.00,99.02
3085.00,99.02
3084.00,99.02
3083.00,99.03
3082.00,99.03
3081.00,99.04
3080.00,99.04
3079.00,99.04
3078.00,99.05
3077.00,99.05
3076.00,99.06
3075.00,99.06
3074.00,99.06
3073.00,99.05
3072.00,99.05
3071.00,99.04
3070.00,99.04
3069.00,99.04
3068.00,99.04
3067.00,99.05
3066.00,99.05
3065.00,99.06
3064.00,99.06
3063.00,99.06
3062.00,99.06
3061.00,99.06
3060.00,99.06
3059.00,99.06
3058.00,99.06
3057.00,99.06
3056.00,99.06
3055.00,99.06
3054.00,99.06
3053.00,99.06
3052.00,99.07
3051.00,99.07
3050.00,99.08
3049.00,99.08
3048.00,99.08
3047.00,99.08
3046.00,99.08
3045.00,99.08
3044.00,99.08
3043.00,99.08
3042.00,99.09
3041.00,99.09
3040.00,99.09
3039.00,99.10
3038.00,99.10
3037.00,99.10
3036.00,99.10
3035.00,99.10
3034.00,99.10
3033.00,99.10
3032.00,99.10
3031.00,99.09
3030.00,99.09
3029.00,99.09
3028.00,99.09
3027.00,99.10
3026.00,99.10
3025.00,99.10
3024.00,99.10
3023.00,99.10
3022.00,99.10
3021.00,99.10
3020.00,99.10
3019.00,99.10
3018.00,99.10
3017.00,99.10
3016.00,99.10
3015.00,99.10
3014.00,99.10
3013.00,99.11
3012.00,99.11
3011.00,99.10
3010.00,99.10
3009.00,99.10
3008.00,99.10
3007.00,99.09
3006.00,99.08
3005.00,99.08
3004.00,99.08
3003.00,99.08
3002.00,99.08
3001.00,99.08
3000.00,99.07
2999.00,99.07
2998.00,99.06
2997.00,99.05
2996.00,99.04
2995.00,99.04
2994.00,99.03
2993.00,99.03
2992.00,99.02
2991.00,99.00
2990.00,98.99
2989.00,98.97
2988.00,98.96
2987.00,98.94
2986.00,98.92
2985.00,98.90
2984.00,98.88
2983.00,98.85
2982.00,98.82
2981.00,98.79
2980.00,98.75
2979.00,98.71
2978.00,98.67
2977.00,98.62
2976.00,98.56
2975.00,98.50
2974.00,98.42
2973.00,98.34
2972.00,98.24
2971.00,98.13
2970.00,98.00
2969.00,97.86
2968.00,97.71
2967.00,97.54
2966.00,97.37
2965.00,97.20
2964.00,97.03
2963.00,96.86
2962.00,96.72
2961.00,96.59
2960.00,96.49
2959.00,96.41
2958.00,96.35
2957.00,96.28
2956.00,96.22
2955.00,96.14
2954.00,96.06
2953.00,95.96
2952.00,95.87
2951.00,95.79
2950.00,95.75
2949.00,95.75
2948.00,95.81
2947.00,95.92
2946.00,96.07
2945.00,96.25
2944.00,96.44
2943.00,96.62
2942.00,96.77
2941.00,96.89
2940.00,96.98
2939.00,97.03
2938.00,97.04
2937.00,97.01
2936.00,96.96
2935.00,96.88
2934.00,96.77
2933.00,96.65
2932.00,96.51
2931.00,96.36
2930.00,96.20
2929.00,96.03
2928.00,95.87
2927.00,95.71
2926.00,95.57
2925.00,95.45
2924.00,95.34
2923.00,95.25
2922.00,95.18
2921.00,95.12
2920.00,95.08
2919.00,95.07
2918.00,95.08
2917.00,95.11
2916.00,95.16
2915.00,95.22
2914.00,95.30
2913.00,95.38
2912.00,95.46
2911.00,95.55
2910.00,95.63
2909.00,95.71
2908.00,95.79
2907.00,95.87
2906.00,95.96
2905.00,96.05
2904.00,96.15
2903.00,96.25
2902.00,96.36
2901.00,96.46
2900.00,96.56
2899.00,96.66
2898.00,96.75
2897.00,96.84
2896.00,96.92
2895.00,96.99
2894.00,97.05
2893.00,97.09
2892.00,97.13
2891.00,97.15
2890.00,97.16
2889.00,97.17
2888.00,97.17
2887.00,97.16
2886.00,97.16
2885.00,97.15
2884.00,97.13
2883.00,97.10
2882.00,97.06
2881.00,97.02
2880.00,96.97
2879.00,96.92
2878.00,96.89
2877.00,96.86
2876.00,96.84
2875.00,96.84
2874.00,96.84
2873.00,96.83
2872.00,96.83
2871.00,96.81
2870.00,96.79
2869.00,96.76
2868.00,96.74
2867.00,96.72
2866.00,96.73
2865.00,96.77
2864.00,96.85
2863.00,96.96
2862.00,97.10
2861.00,97.23
2860.00,97.36
2859.00,97.47
2858.00,97.55
2857.00,97.62
2856.00,97.68
2855.00,97.72
2854.00,97.76
2853.00,97.79
2852.00,97.83
2851.00,97.87
2850.00,97.91
2849.00,97.93
2848.00,97.92
2847.00,97.87
2846.00,97.80
2845.00,97.70
2844.00,97.58
2843.00,97.45
2842.00,97.32
2841.00,97.19
2840.00,97.08
2839.00,96.99
2838.00,96.94
2837.00,96.94
2836.00,96.98
2835.00,97.07
2834.00,97.20
2833.00,97.35
2832.00,97.51
2831.00,97.66
2830.00,97.79
2829.00,97.91
2828.00,98.01
2827.00,98.10
2826.00,98.17
2825.00,98.23
2824.00,98.28
2823.00,98.32
2822.00,98.35
2821.00,98.39
2820.00,98.41
2819.00,98.44
2818.00,98.46
2817.00,98.48
2816.00,98.49
2815.00,98.50
2814.00,98.52
2813.00,98.53
2812.00,98.54
2811.00,98.55
2810.00,98.57
2809.00,98.58
2808.00,98.60
2807.00,98.62
2806.00,98.63
2805.00,98.65
2804.00,98.67
2803.00,98.68
2802.00,98.69
2801.00,98.70
2800.00,98.71
2799.00,98.71
2798.00,98.72
2797.00,98.72
2796.00,98.73
2795.00,98.73
2794.00,98.74
2793.00,98.75
2792.00,98.75
2791.00,98.76
2790.00,98.77
2789.00,98.77
2788.00,98.78
2787.00,98.79
2786.00,98.80
2785.00,98.80
2784.00,98.81
2783.00,98.82
2782.00,98.83
2781.00,98.83
2780.00,98.84
2779.00,98.84
2778.00,98.84
2777.00,98.85
2776.00,98.86
2775.00,98.87
2774.00,98.88
2773.00,98.88
2772.00,98.88
2771.00,98.88
2770.00,98.88
2769.00,98.88
2768.00,98.88
2767.00,98.89
2766.00,98.89
2765.00,98.89
2764.00,98.89
2763.00,98.89
2762.00,98.90
2761.00,98.90
2760.00,98.90
2759.00,98.91
2758.00,98.91
2757.00,98.90
2756.00,98.90
2755.00,98.90
2754.00,98.90
2753.00,98.91
2752.00,98.92
2751.00,98.92
2750.00,98.92
2749.00,98.92
2748.00,98.92
2747.00,98.92
2746.00,98.93
2745.00,98.93
2744.00,98.93
2743.00,98.92
2742.00,98.92
2741.00,98.91
2740.00,98.91
2739.00,98.91
2738.00,98.91
2737.00,98.91
2736.00,98.91
2735.00,98.91
2734.00,98.91
2733.00,98.91
2732.00,98.90
2731.00,98.90
2730.00,98.90
2729.00,98.89
2728.00,98.89
2727.00,98.88
2726.00,98.88
2725.00,98.87
2724.00,98.87
2723.00,98.87
2722.00,98.87
2721.00,98.87
2720.00,98.88
2719.00,98.88
2718.00,98.89
2717.00,98.89
2716.00,98.89
2715.00,98.90
2714.00,98.90
2713.00,98.91
2712.00,98.91
2711.00,98.92
2710.00,98.92
2709.00,98.92
2708.00,98.93
2707.00,98.93
2706.00,98.93
2705.00,98.94
2704.00,98.94
2703.00,98.95
2702.00,98.95
2701.00,98.95
2700.00,98.95
2699.00,98.95
2698.00,98.96
2697.00,98.96
2696.00,98.96
2695.00,98.96
2694.00,98.96
2693.00,98.96
2692.00,98.96
2691.00,98.96
2690.00,98.96
2689.00,98.96
2688.00,98.96
2687.00,98.96
2686.00,98.96
2685.00,98.96
2684.00,98.96
2683.00,98.97
2682.00,98.97
2681.00,98.97
2680.00,98.97
2679.00,98.97
2678.00,98.97
2677.00,98.97
2676.00,98.97
2675.00,98.97
2674.00,98.97
2673.00,98.97
2672.00,98.97
2671.00,98.97
2670.00,98.97
2669.00,98.97
2668.00,98.96
2667.00,98.96
2666.00,98.95
2665.00,98.95
2664.00,98.95
2663.00,98.95
2662.00,98.95
2661.00,98.95
2660.00,98.94
2659.00,98.94
2658.00,98.94
2657.00,98.93
2656.00,98.93
2655.00,98.93
2654.00,98.93
2653.00,98.93
2652.00,98.93
2651.00,98.93
2650.00,98.93
2649.00,98.94
2648.00,98.94
2647.00,98.94
2646.00,98.94
2645.00,98.95
2644.00,98.95
2643.00,98.95
2642.00,98.96
2641.00,98.96
2640.00,98.96
2639.00,98.96
2638.00,98.95
2637.00,98.96
2636.00,98.96
2635.00,98.96
2634.00,98.96
2633.00,98.96
2632.00,98.96
2631.00,98.96
2630.00,98.96
2629.00,98.96
2628.00,98.96
2627.00,98.96
2626.00,98.96
2625.00,98.97
2624.00,98.97
2623.00,98.97
2622.00,98.97
2621.00,98.97
2620.00,98.98
2619.00,98.98
2618.00,98.98
2617.00,98.98
2616.00,98.97
2615.00,98.97
2614.00,98.97
2613.00,98.97
2612.00,98.97
2611.00,98.98
2610.00,98.99
2609.00,98.99
2608.00,99.00
2607.00,99.00
2606.00,98.99
2605.00,98.99
2604.00,98.99
2603.00,98.99
2602.00,98.99
2601.00,98.99
2600.00,98.99
2599.00,98.99
2598.00,98.99
2597.00,99.00
2596.00,99.00
2595.00,99.01
2594.00,99.02
2593.00,99.02
2592.00,99.02
2591.00,99.01
2590.00,99.01
2589.00,99.00
2588.00,99.00
2587.00,99.00
2586.00,98.99
2585.00,98.98
2584.00,98.97
2583.00,98.97
2582.00,98.97
2581.00,98.97
2580.00,98.98
2579.00,99.00
2578.00,99.01
2577.00,99.02
2576.00,99.02
2575.00,99.02
2574.00,99.02
2573.00,99.02
2572.00,99.03
2571.00,99.03
2570.00,99.03
2569.00,99.03
2568.00,99.03
2567.00,99.02
2566.00,99.02
2565.00,99.02
2564.00,99.02
2563.00,99.03
2562.00,99.04
2561.00,99.05
2560.00,99.05
2559.00,99.05
2558.00,99.05
2557.00,99.05
2556.00,99.05
2555.00,99.04
2554.00,99.04
2553.00,99.04
2552.00,99.04
2551.00,99.04
2550.00,99.05
2549.00,99.05
2548.00,99.05
2547.00,99.05
2546.00,99.04
2545.00,99.05
2544.00,99.05
2543.00,99.05
2542.00,99.05
2541.00,99.05
2540.00,99.04
2539.00,99.04
2538.00,99.04
2537.00,99.05
2536.00,99.06
2535.00,99.06
2534.00,99.07
2533.00,99.06
2532.00,99.06
2531.00,99.06
2530.00,99.06
2529.00,99.06
2528.00,99.06
2527.00,99.06
2526.00,99.05
2525.00,99.05
2524.00,99.05
2523.00,99.05
2522.00,99.05
2521.00,99.05
2520.00,99.06
2519.00,99.06
2518.00,99.06
2517.00,99.05
2516.00,99.05
2515.00,99.05
2514.00,99.05
2513.00,99.06
2512.00,99.06
2511.00,99.06
2510.00,99.06
2509.00,99.06
2508.00,99.06
2507.00,99.07
2506.00,99.07
2505.00,99.08
2504.00,99.08
2503.00,99.08
2502.00,99.08
2501.00,99.07
2500.00,99.07
2499.00,99.07
2498.00,99.07
2497.00,99.07
2496.00,99.06
2495.00,99.06
2494.00,99.07
2493.00,99.07
2492.00,99.07
2491.00,99.07
2490.00,99.07
2489.00,99.07
2488.00,99.07
2487.00,99.06
2486.00,99.06
2485.00,99.06
2484.00,99.07
2483.00,99.07
2482.00,99.08
2481.00,99.08
2480.00,99.07
2479.00,99.07
2478.00,99.06
2477.00,99.07
2476.00,99.07
2475.00,99.07
2474.00,99.08
2473.00,99.08
2472.00,99.08
2471.00,99.08
2470.00,99.07
2469.00,99.07
2468.00,99.06
2467.00,99.06
2466.00,99.06
2465.00,99.06
2464.00,99.07
2463.00,99.08
2462.00,99.08
2461.00,99.07
2460.00,99.06
2459.00,99.06
2458.00,99.05
2457.00,99.05
2456.00,99.05
2455.00,99.05
2454.00,99.05
2453.00,99.05
2452.00,99.05
2451.00,99.05
2450.00,99.06
2449.00,99.06
2448.00,99.06
2447.00,99.06
2446.00,99.07
2445.00,99.08
2444.00,99.08
2443.00,99.08
2442.00,99.08
2441.00,99.07
2440.00,99.06
2439.00,99.06
2438.00,99.07
2437.00,99.07
2436.00,99.08
2435.00,99.08
2434.00,99.07
2433.00,99.06
2432.00,99.06
2431.00,99.06
2430.00,99.07
2429.00,99.08
2428.00,99.09
2427.00,99.09
2426.00,99.09
2425.00,99.09
2424.00,99.08
2423.00,99.07
2422.00,99.07
2421.00,99.07
2420.00,99.07
2419.00,99.07
2418.00,99.08
2417.00,99.08
2416.00,99.08
2415.00,99.08
2414.00,99.08
2413.00,99.08
2412.00,99.08
2411.00,99.08
2410.00,99.08
2409.00,99.08
2408.00,99.09
2407.00,99.09
2406.00,99.09
2405.00,99.09
2404.00,99.09
2403.00,99.09
2402.00,99.09
2401.00,99.10
2400.00,99.10
2399.00,99.09
2398.00,99.09
2397.00,99.09
2396.00,99.09
2395.00,99.10
2394.00,99.11
2393.00,99.12
2392.00,99.12
2391.00,99.11
2390.00,99.11
2389.00,99.10
2388.00,99.10
2387.00,99.10
2386.00,99.10
2385.00,99.10
2384.00,99.10
2383.00,99.10
2382.00,99.10
2381.00,99.10
2380.00,99.10
2379.00,99.10
2378.00,99.10
2377.00,99.11
2376.00,99.12
2375.00,99.12
2374.00,99.13
2373.00,99.14
2372.00,99.14
2371.00,99.14
2370.00,99.13
2369.00,99.12
2368.00,99.11
2367.00,99.10
2366.00,99.10
2365.00,99.10
2364.00,99.10
2363.00,99.09
2362.00,99.07
2361.00,99.07
2360.00,99.07
2359.00,99.08
2358.00,99.08
2357.00,99.08
2356.00,99.08
2355.00,99.08
2354.00,99.07
2353.00,99.07
2352.00,99.08
2351.00,99.10
2350.00,99.10
2349.00,99.08
2348.00,99.05
2347.00,99.02
2346.00,99.02
2345.00,99.04
2344.00,99.05
2343.00,99.04
2342.00,99.02
2341.00,99.01
2340.00,99.00
2339.00,99.00
2338.00,99.01
2337.00,99.02
2336.00,99.03
2335.00,99.02
2334.00,99.01
2333.00,98.99
2332.00,98.97
2331.00,98.97
2330.00,98.98
2329.00,98.99
2328.00,98.99
2327.00,98.97
2326.00,98.93
2325.00,98.89
2324.00,98.86
2323.00,98.86
2322.00,98.87
2321.00,98.90
2320.00,98.91
2319.00,98.93
2318.00,98.94
2317.00,98.95
2316.00,98.96
2315.00,98.97
2314.00,98.98
2313.00,98.99
2312.00,98.99
2311.00,98.99
2310.00,98.99
2309.00,98.99
2308.00,98.99
2307.00,98.99
2306.00,98.99
2305.00,98.98
2304.00,98.98
2303.00,98.98
2302.00,98.99
2301.00,98.99
2300.00,98.98
2299.00,98.98
2298.00,98.98
2297.00,98.98
2296.00,98.99
2295.00,98.99
2294.00,98.99
2293.00,98.98
2292.00,98.97
2291.00,98.96
2290.00,98.95
2289.00,98.94
2288.00,98.94
2287.00,98.94
2286.00,98.94
2285.00,98.95
2284.00,98.96
2283.00,98.97
2282.00,98.97
2281.00,98.98
2280.00,98.99
2279.00,99.00
2278.00,99.01
2277.00,99.03
2276.00,99.03
2275.00,99.02
2274.00,99.02
2273.00,99.02
2272.00,99.02
2271.00,99.02
2270.00,99.03
2269.00,99.03
2268.00,99.04
2267.00,99.05
2266.00,99.05
2265.00,99.06
2264.00,99.05
2263.00,99.05
2262.00,99.05
2261.00,99.04
2260.00,99.04
2259.00,99.03
2258.00,99.01
2257.00,99.01
2256.00,99.00
2255.00,99.00
2254.00,99.00
2253.00,99.00
2252.00,99.01
2251.00,99.02
2250.00,99.04
2249.00,99.04
2248.00,99.04
2247.00,99.04
2246.00,99.05
2245.00,99.05
2244.00,99.05
2243.00,99.04
2242.00,99.03
2241.00,99.02
2240.00,99.01
2239.00,99.01
2238.00,99.02
2237.00,99.03
2236.00,99.03
2235.00,99.03
2234.00,99.03
2233.00,99.04
2232.00,99.04
2231.00,99.05
2230.00,99.05
2229.00,99.05
2228.00,99.05
2227.00,99.05
2226.00,99.05
2225.00,99.04
2224.00,99.02
2223.00,99.01
2222.00,99.02
2221.00,99.04
2220.00,99.06
2219.00,99.07
2218.00,99.07
2217.00,99.06
2216.00,99.06
2215.00,99.05
2214.00,99.05
2213.00,99.05
2212.00,99.05
2211.00,99.04
2210.00,99.04
2209.00,99.04
2208.00,99.05
2207.00,99.07
2206.00,99.07
2205.00,99.06
2204.00,99.03
2203.00,99.00
2202.00,98.98
2201.00,98.98
2200.00,99.00
2199.00,99.02
2198.00,99.02
2197.00,99.01
2196.00,99.00
2195.00,99.01
2194.00,99.02
2193.00,99.04
2192.00,99.04
2191.00,99.03
2190.00,99.03
2189.00,99.03
2188.00,99.04
2187.00,99.04
2186.00,99.04
2185.00,99.04
2184.00,99.04
2183.00,99.05
2182.00,99.06
2181.00,99.07
2180.00,99.08
2179.00,99.08
2178.00,99.08
2177.00,99.09
2176.00,99.10
2175.00,99.11
2174.00,99.10
2173.00,99.08
2172.00,99.05
2171.00,99.02
2170.00,98.99
2169.00,98.97
2168.00,98.94
2167.00,98.92
2166.00,98.90
2165.00,98.89
2164.00,98.89
2163.00,98.90
2162.00,98.92
2161.00,98.96
2160.00,99.02
2159.00,99.11
2158.00,99.17
2157.00,99.21
2156.00,99.24
2155.00,99.28
2154.00,99.31
2153.00,99.32
2152.00,99.31
2151.00,99.29
2150.00,99.27
2149.00,99.24
2148.00,99.20
2147.00,99.18
2146.00,99.17
2145.00,99.18
2144.00,99.20
2143.00,99.21
2142.00,99.20
2141.00,99.18
2140.00,99.15
2139.00,99.12
2138.00,99.11
2137.00,99.13
2136.00,99.16
2135.00,99.21
2134.00,99.24
2133.00,99.25
2132.00,99.25
2131.00,99.24
2130.00,99.22
2129.00,99.20
2128.00,99.19
2127.00,99.17
2126.00,99.16
2125.00,99.14
2124.00,99.13
2123.00,99.12
2122.00,99.10
2121.00,99.09
2120.00,99.08
2119.00,99.07
2118.00,99.05
2117.00,99.03
2116.00,99.01
2115.00,99.00
2114.00,99.01
2113.00,99.02
2112.00,99.03
2111.00,99.04
2110.00,99.04
2109.00,99.04
2108.00,99.04
2107.00,99.04
2106.00,99.05
2105.00,99.06
2104.00,99.06
2103.00,99.06
2102.00,99.04
2101.00,99.02
2100.00,99.00
2099.00,99.00
2098.00,99.01
2097.00,99.04
2096.00,99.07
2095.00,99.10
2094.00,99.11
2093.00,99.11
2092.00,99.10
2091.00,99.10
2090.00,99.09
2089.00,99.07
2088.00,99.05
2087.00,99.04
2086.00,99.03
2085.00,99.01
2084.00,99.00
2083.00,99.00
2082.00,99.00
2081.00,99.02
2080.00,99.03
2079.00,99.04
2078.00,99.04
2077.00,99.04
2076.00,99.05
2075.00,99.06
2074.00,99.07
2073.00,99.06
2072.00,99.05
2071.00,99.04
2070.00,99.05
2069.00,99.05
2068.00,99.04
2067.00,99.03
2066.00,99.01
2065.00,98.99
2064.00,98.98
2063.00,98.98
2062.00,98.99
2061.00,99.00
2060.00,99.00
2059.00,99.01
2058.00,99.00
2057.00,99.01
2056.00,99.02
2055.00,99.03
2054.00,99.01
2053.00,98.96
2052.00,98.88
2051.00,98.82
2050.00,98.81
2049.00,98.84
2048.00,98.89
2047.00,98.92
2046.00,98.94
2045.00,98.94
2044.00,98.93
2043.00,98.93
2042.00,98.93
2041.00,98.92
2040.00,98.89
2039.00,98.86
2038.00,98.84
2037.00,98.85
2036.00,98.87
2035.00,98.91
2034.00,98.96
2033.00,99.02
2032.00,99.08
2031.00,99.11
2030.00,99.11
2029.00,99.08
2028.00,99.05
2027.00,99.01
2026.00,98.99
2025.00,98.98
2024.00,98.98
2023.00,98.99
2022.00,99.02
2021.00,99.06
2020.00,99.09
2019.00,99.11
2018.00,99.11
2017.00,99.10
2016.00,99.08
2015.00,99.07
2014.00,99.07
2013.00,99.05
2012.00,99.02
2011.00,99.01
2010.00,99.02
2009.00,99.04
2008.00,99.06
2007.00,99.08
2006.00,99.09
2005.00,99.09
2004.00,99.08
2003.00,99.05
2002.00,99.03
2001.00,99.03
2000.00,99.04
1999.00,99.06
1998.00,99.07
1997.00,99.07
1996.00,99.05
1995.00,99.03
1994.00,99.02
1993.00,99.02
1992.00,99.04
1991.00,99.05
1990.00,99.04
1989.00,99.02
1988.00,98.99
1987.00,98.96
1986.00,98.92
1985.00,98.89
1984.00,98.86
1983.00,98.86
1982.00,98.87
1981.00,98.87
1980.00,98.87
1979.00,98.88
1978.00,98.91
1977.00,98.93
1976.00,98.95
1975.00,98.98
1974.00,99.00
1973.00,99.03
1972.00,99.05
1971.00,99.06
1970.00,99.06
1969.00,99.04
1968.00,99.03
1967.00,99.03
1966.00,99.04
1965.00,99.05
1964.00,99.05
1963.00,99.05
1962.00,99.06
1961.00,99.08
1960.00,99.10
1959.00,99.10
1958.00,99.09
1957.00,99.06
1956.00,99.04
1955.00,99.04
1954.00,99.04
1953.00,99.06
1952.00,99.08
1951.00,99.10
1950.00,99.12
1949.00,99.12
1948.00,99.11
1947.00,99.10
1946.00,99.10
1945.00,99.10
1944.00,99.10
1943.00,99.09
1942.00,99.08
1941.00,99.06
1940.00,99.05
1939.00,99.05
1938.00,99.06
1937.00,99.06
1936.00,99.06
1935.00,99.05
1934.00,99.05
1933.00,99.05
1932.00,99.06
1931.00,99.07
1930.00,99.08
1929.00,99.08
1928.00,99.07
1927.00,99.06
1926.00,99.04
1925.00,99.03
1924.00,99.03
1923.00,99.03
1922.00,99.03
1921.00,99.02
1920.00,99.01
1919.00,99.01
1918.00,99.02
1917.00,99.03
1916.00,99.04
1915.00,99.04
1914.00,99.04
1913.00,99.03
1912.00,99.03
1911.00,99.04
1910.00,99.05
1909.00,99.06
1908.00,99.05
1907.00,99.04
1906.00,99.03
1905.00,99.02
1904.00,99.02
1903.00,99.02
1902.00,99.02
1901.00,99.02
1900.00,99.03
1899.00,99.04
1898.00,99.05
1897.00,99.05
1896.00,99.05
1895.00,99.03
1894.00,99.02
1893.00,99.02
1892.00,99.02
1891.00,99.03
1890.00,99.05
1889.00,99.06
1888.00,99.06
1887.00,99.05
1886.00,99.04
1885.00,99.03
1884.00,99.02
1883.00,99.01
1882.00,99.01
1881.00,99.02
1880.00,99.03
1879.00,99.03
1878.00,99.03
1877.00,99.03
1876.00,99.03
1875.00,99.03
1874.00,99.04
1873.00,99.04
1872.00,99.04
1871.00,99.03
1870.00,99.02
1869.00,99.01
1868.00,99.01
1867.00,99.00
1866.00,98.99
1865.00,98.98
1864.00,98.98
1863.00,98.99
1862.00,99.00
1861.00,99.01
1860.00,99.02
1859.00,99.03
1858.00,99.04
1857.00,99.05
1856.00,99.05
1855.00,99.04
1854.00,99.03
1853.00,99.02
1852.00,99.01
1851.00,99.00
1850.00,99.00
1849.00,99.00
1848.00,99.00
1847.00,99.01
1846.00,99.01
1845.00,99.02
1844.00,99.02
1843.00,99.02
1842.00,99.01
1841.00,99.00
1840.00,99.00
1839.00,99.00
1838.00,99.01
1837.00,99.02
1836.00,99.02
1835.00,99.01
1834.00,99.00
1833.00,99.00
1832.00,98.99
1831.00,98.99
1830.00,99.00
1829.00,99.00
1828.00,99.00
1827.00,99.00
1826.00,99.00
1825.00,98.99
1824.00,98.99
1823.00,98.99
1822.00,98.99
1821.00,99.00
1820.00,99.01
1819.00,99.02
1818.00,99.02
1817.00,99.03
1816.00,99.02
1815.00,99.01
1814.00,99.00
1813.00,98.99
1812.00,98.98
1811.00,98.98
1810.00,98.97
1809.00,98.97
1808.00,98.98
1807.00,98.97
1806.00,98.97
1805.00,98.97
1804.00,98.96
1803.00,98.96
1802.00,98.96
1801.00,98.95
1800.00,98.94
1799.00,98.93
1798.00,98.93
1797.00,98.93
1796.00,98.93
1795.00,98.93
1794.00,98.94
1793.00,98.93
1792.00,98.93
1791.00,98.92
1790.00,98.91
1789.00,98.91
1788.00,98.91
1787.00,98.91
1786.00,98.91
1785.00,98.90
1784.00,98.90
1783.00,98.90
1782.00,98.90
1781.00,98.89
1780.00,98.88
1779.00,98.87
1778.00,98.87
1777.00,98.87
1776.00,98.87
1775.00,98.86
1774.00,98.85
1773.00,98.85
1772.00,98.86
1771.00,98.86
1770.00,98.85
1769.00,98.84
1768.00,98.82
1767.00,98.80
1766.00,98.79
1765.00,98.79
1764.00,98.78
1763.00,98.77
1762.00,98.76
1761.00,98.74
1760.00,98.73
1759.00,98.71
1758.00,98.69
1757.00,98.67
1756.00,98.65
1755.00,98.63
1754.00,98.60
1753.00,98.57
1752.00,98.54
1751.00,98.50
1750.00,98.48
1749.00,98.45
1748.00,98.42
1747.00,98.37
1746.00,98.32
1745.00,98.27
1744.00,98.20
1743.00,98.14
1742.00,98.10
1741.00,98.06
1740.00,98.04
1739.00,98.03
1738.00,98.02
1737.00,98.02
1736.00,98.02
1735.00,98.03
1734.00,98.05
1733.00,98.08
1732.00,98.10
1731.00,98.13
1730.00,98.15
1729.00,98.16
1728.00,98.17
1727.00,98.16
1726.00,98.16
1725.00,98.16
1724.00,98.15
1723.00,98.15
1722.00,98.15
1721.00,98.15
1720.00,98.15
1719.00,98.14
1718.00,98.13
1717.00,98.11
1716.00,98.10
1715.00,98.09
1714.00,98.08
1713.00,98.07
1712.00,98.06
1711.00,98.05
1710.00,98.05
1709.00,98.04
1708.00,98.03
1707.00,98.03
1706.00,98.02
1705.00,98.02
1704.00,98.01
1703.00,97.99
1702.00,97.98
1701.00,97.97
1700.00,97.96
1699.00,97.96
1698.00,97.96
1697.00,97.96
1696.00,97.96
1695.00,97.96
1694.00,97.95
1693.00,97.94
1692.00,97.93
1691.00,97.91
1690.00,97.90
1689.00,97.88
1688.00,97.86
1687.00,97.84
1686.00,97.83
1685.00,97.81
1684.00,97.79
1683.00,97.75
1682.00,97.72
1681.00,97.68
1680.00,97.65
1679.00,97.63
1678.00,97.61
1677.00,97.59
1676.00,97.56
1675.00,97.53
1674.00,97.49
1673.00,97.45
1672.00,97.42
1671.00,97.38
1670.00,97.34
1669.00,97.29
1668.00,97.24
1667.00,97.19
1666.00,97.16
1665.00,97.13
1664.00,97.10
1663.00,97.05
1662.00,97.01
1661.00,96.96
1660.00,96.91
1659.00,96.88
1658.00,96.85
1657.00,96.83
1656.00,96.82
1655.00,96.81
1654.00,96.80
1653.00,96.77
1652.00,96.72
1651.00,96.69
1650.00,96.69
1649.00,96.71
1648.00,96.72
1647.00,96.71
1646.00,96.69
1645.00,96.67
1644.00,96.66
1643.00,96.65
1642.00,96.66
1641.00,96.66
1640.00,96.67
1639.00,96.67
1638.00,96.68
1637.00,96.69
1636.00,96.71
1635.00,96.72
1634.00,96.72
1633.00,96.72
1632.00,96.73
1631.00,96.75
1630.00,96.77
1629.00,96.81
1628.00,96.83
1627.00,96.85
1626.00,96.87
1625.00,96.90
1624.00,96.93
1623.00,96.96
1622.00,96.99
1621.00,97.02
1620.00,97.04
1619.00,97.08
1618.00,97.13
1617.00,97.18
1616.00,97.22
1615.00,97.25
1614.00,97.28
1613.00,97.31
1612.00,97.35
1611.00,97.39
1610.00,97.43
1609.00,97.48
1608.00,97.52
1607.00,97.56
1606.00,97.61
1605.00,97.65
1604.00,97.70
1603.00,97.74
1602.00,97.78
1601.00,97.82
1600.00,97.87
1599.00,97.91
1598.00,97.95
1597.00,98.00
1596.00,98.05
1595.00,98.10
1594.00,98.14
1593.00,98.18
1592.00,98.22
1591.00,98.25
1590.00,98.28
1589.00,98.32
1588.00,98.36
1587.00,98.41
1586.00,98.45
1585.00,98.49
1584.00,98.53
1583.00,98.58
1582.00,98.64
1581.00,98.70
1580.00,98.76
1579.00,98.82
1578.00,98.86
1577.00,98.89
1576.00,98.92
1575.00,98.93
1574.00,98.92
1573.00,98.90
1572.00,98.88
1571.00,98.85
1570.00,98.81
1569.00,98.77
1568.00,98.73
1567.00,98.70
1566.00,98.69
1565.00,98.67
1564.00,98.67
1563.00,98.66
1562.00,98.66
1561.00,98.66
1560.00,98.65
1559.00,98.65
1558.00,98.65
1557.00,98.64
1556.00,98.62
1555.00,98.61
1554.00,98.61
1553.00,98.61
1552.00,98.61
1551.00,98.63
1550.00,98.65
1549.00,98.68
1548.00,98.72
1547.00,98.76
1546.00,98.80
1545.00,98.86
1544.00,98.93
1543.00,99.00
1542.00,99.07
1541.00,99.13
1540.00,99.16
1539.00,99.16
1538.00,99.12
1537.00,99.06
1536.00,99.00
1535.00,98.93
1534.00,98.85
1533.00,98.78
1532.00,98.72
1531.00,98.68
1530.00,98.64
1529.00,98.61
1528.00,98.58
1527.00,98.56
1526.00,98.53
1525.00,98.52
1524.00,98.52
1523.00,98.52
1522.00,98.52
1521.00,98.52
1520.00,98.52
1519.00,98.52
1518.00,98.52
1517.00,98.51
1516.00,98.50
1515.00,98.49
1514.00,98.49
1513.00,98.48
1512.00,98.48
1511.00,98.48
1510.00,98.47
1509.00,98.46
1508.00,98.45
1507.00,98.47
1506.00,98.51
1505.00,98.53
1504.00,98.54
1503.00,98.53
1502.00,98.53
1501.00,98.52
1500.00,98.52
1499.00,98.52
1498.00,98.52
1497.00,98.50
1496.00,98.49
1495.00,98.48
1494.00,98.48
1493.00,98.48
1492.00,98.47
1491.00,98.46
1490.00,98.45
1489.00,98.44
1488.00,98.44
1487.00,98.44
1486.00,98.43
1485.00,98.42
1484.00,98.40
1483.00,98.39
1482.00,98.37
1481.00,98.35
1480.00,98.32
1479.00,98.30
1478.00,98.27
1477.00,98.23
1476.00,98.17
1475.00,98.11
1474.00,98.03
1473.00,97.94
1472.00,97.84
1471.00,97.73
1470.00,97.61
1469.00,97.49
1468.00,97.35
1467.00,97.21
1466.00,97.04
1465.00,96.85
1464.00,96.65
1463.00,96.48
1462.00,96.35
1461.00,96.25
1460.00,96.17
1459.00,96.10
1458.00,96.03
1457.00,95.96
1456.00,95.91
1455.00,95.88
1454.00,95.85
1453.00,95.82
1452.00,95.82
1451.00,95.83
1450.00,95.87
1449.00,95.94
1448.00,96.05
1447.00,96.19
1446.00,96.33
1445.00,96.46
1444.00,96.59
1443.00,96.69
1442.00,96.77
1441.00,96.83
1440.00,96.87
1439.00,96.90
1438.00,96.91
1437.00,96.90
1436.00,96.90
1435.00,96.92
1434.00,96.96
1433.00,97.02
1432.00,97.08
1431.00,97.15
1430.00,97.21
1429.00,97.25
1428.00,97.28
1427.00,97.31
1426.00,97.33
1425.00,97.34
1424.00,97.35
1423.00,97.37
1422.00,97.37
1421.00,97.38
1420.00,97.39
1419.00,97.40
1418.00,97.40
1417.00,97.41
1416.00,97.43
1415.00,97.44
1414.00,97.45
1413.00,97.45
1412.00,97.44
1411.00,97.44
1410.00,97.44
1409.00,97.45
1408.00,97.47
1407.00,97.49
1406.00,97.50
1405.00,97.52
1404.00,97.53
1403.00,97.55
1402.00,97.56
1401.00,97.58
1400.00,97.59
1399.00,97.60
1398.00,97.60
1397.00,97.61
1396.00,97.62
1395.00,97.64
1394.00,97.66
1393.00,97.68
1392.00,97.70
1391.00,97.71
1390.00,97.72
1389.00,97.72
1388.00,97.71
1387.00,97.69
1386.00,97.65
1385.00,97.58
1384.00,97.48
1383.00,97.33
1382.00,97.11
1381.00,96.81
1380.00,96.41
1379.00,95.95
1378.00,95.47
1377.00,95.05
1376.00,94.79
1375.00,94.75
1374.00,94.92
1373.00,95.23
1372.00,95.57
1371.00,95.89
1370.00,96.16
1369.00,96.36
1368.00,96.50
1367.00,96.58
1366.00,96.62
1365.00,96.63
1364.00,96.62
1363.00,96.60
1362.00,96.59
1361.00,96.57
1360.00,96.56
1359.00,96.56
1358.00,96.58
1357.00,96.62
1356.00,96.68
1355.00,96.76
1354.00,96.84
1353.00,96.91
1352.00,96.97
1351.00,97.01
1350.00,97.04
1349.00,97.07
1348.00,97.09
1347.00,97.11
1346.00,97.13
1345.00,97.15
1344.00,97.16
1343.00,97.17
1342.00,97.17
1341.00,97.17
1340.00,97.17
1339.00,97.18
1338.00,97.19
1337.00,97.21
1336.00,97.22
1335.00,97.22
1334.00,97.22
1333.00,97.22
1332.00,97.21
1331.00,97.20
1330.00,97.19
1329.00,97.18
1328.00,97.17
1327.00,97.16
1326.00,97.15
1325.00,97.14
1324.00,97.13
1323.00,97.12
1322.00,97.10
1321.00,97.10
1320.00,97.10
1319.00,97.12
1318.00,97.16
1317.00,97.21
1316.00,97.27
1315.00,97.33
1314.00,97.39
1313.00,97.44
1312.00,97.49
1311.00,97.53
1310.00,97.56
1309.00,97.58
1308.00,97.60
1307.00,97.60
1306.00,97.60
1305.00,97.60
1304.00,97.60
1303.00,97.62
1302.00,97.64
1301.00,97.67
1300.00,97.68
1299.00,97.69
1298.00,97.70
1297.00,97.71
1296.00,97.72
1295.00,97.73
1294.00,97.75
1293.00,97.76
1292.00,97.78
1291.00,97.79
1290.00,97.81
1289.00,97.82
1288.00,97.83
1287.00,97.84
1286.00,97.85
1285.00,97.86
1284.00,97.86
1283.00,97.87
1282.00,97.87
1281.00,97.88
1280.00,97.88
1279.00,97.88
1278.00,97.88
1277.00,97.87
1276.00,97.87
1275.00,97.87
1274.00,97.86
1273.00,97.85
1272.00,97.84
1271.00,97.83
1270.00,97.81
1269.00,97.78
1268.00,97.74
1267.00,97.69
1266.00,97.64
1265.00,97.58
1264.00,97.53
1263.00,97.49
1262.00,97.45
1261.00,97.43
1260.00,97.42
1259.00,97.42
1258.00,97.43
1257.00,97.44
1256.00,97.46
1255.00,97.49
1254.00,97.53
1253.00,97.58
1252.00,97.61
1251.00,97.64
1250.00,97.66
1249.00,97.67
1248.00,97.67
1247.00,97.68
1246.00,97.68
1245.00,97.68
1244.00,97.67
1243.00,97.66
1242.00,97.64
1241.00,97.63
1240.00,97.62
1239.00,97.61
1238.00,97.61
1237.00,97.61
1236.00,97.61
1235.00,97.61
1234.00,97.61
1233.00,97.61
1232.00,97.61
1231.00,97.61
1230.00,97.62
1229.00,97.62
1228.00,97.62
1227.00,97.61
1226.00,97.61
1225.00,97.60
1224.00,97.59
1223.00,97.58
1222.00,97.58
1221.00,97.57
1220.00,97.57
1219.00,97.57
1218.00,97.57
1217.00,97.57
1216.00,97.58
1215.00,97.58
1214.00,97.58
1213.00,97.59
1212.00,97.59
1211.00,97.60
1210.00,97.60
1209.00,97.60
1208.00,97.60
1207.00,97.60
1206.00,97.59
1205.00,97.59
1204.00,97.59
1203.00,97.59
1202.00,97.58
1201.00,97.58
1200.00,97.57
1199.00,97.56
1198.00,97.56
1197.00,97.55
1196.00,97.54
1195.00,97.54
1194.00,97.53
1193.00,97.53
1192.00,97.52
1191.00,97.52
1190.00,97.52
1189.00,97.51
1188.00,97.50
1187.00,97.48
1186.00,97.47
1185.00,97.44
1184.00,97.42
1183.00,97.40
1182.00,97.39
1181.00,97.38
1180.00,97.37
1179.00,97.36
1178.00,97.35
1177.00,97.34
1176.00,97.32
1175.00,97.30
1174.00,97.28
1173.00,97.25
1172.00,97.20
1171.00,97.14
1170.00,97.07
1169.00,97.01
1168.00,96.96
1167.00,96.94
1166.00,96.95
1165.00,96.97
1164.00,97.00
1163.00,97.04
1162.00,97.08
1161.00,97.11
1160.00,97.14
1159.00,97.17
1158.00,97.19
1157.00,97.20
1156.00,97.21
1155.00,97.21
1154.00,97.21
1153.00,97.21
1152.00,97.22
1151.00,97.23
1150.00,97.24
1149.00,97.26
1148.00,97.27
1147.00,97.29
1146.00,97.31
1145.00,97.32
1144.00,97.34
1143.00,97.34
1142.00,97.35
1141.00,97.34
1140.00,97.34
1139.00,97.33
1138.00,97.33
1137.00,97.33
1136.00,97.33
1135.00,97.33
1134.00,97.34
1133.00,97.34
1132.00,97.33
1131.00,97.33
1130.00,97.32
1129.00,97.31
1128.00,97.31
1127.00,97.31
1126.00,97.31
1125.00,97.31
1124.00,97.31
1123.00,97.31
1122.00,97.30
1121.00,97.29
1120.00,97.29
1119.00,97.28
1118.00,97.28
1117.00,97.27
1116.00,97.26
1115.00,97.26
1114.00,97.25
1113.00,97.24
1112.00,97.22
1111.00,97.20
1110.00,97.18
1109.00,97.16
1108.00,97.13
1107.00,97.11
1106.00,97.08
1105.00,97.06
1104.00,97.03
1103.00,97.01
1102.00,97.00
1101.00,96.99
1100.00,96.98
1099.00,96.97
1098.00,96.97
1097.00,96.96
1096.00,96.96
1095.00,96.96
1094.00,96.97
1093.00,96.98
1092.00,96.99
1091.00,97.00
1090.00,97.01
1089.00,97.02
1088.00,97.03
1087.00,97.04
1086.00,97.04
1085.00,97.05
1084.00,97.06
1083.00,97.07
1082.00,97.09
1081.00,97.09
1080.00,97.09
1079.00,97.09
1078.00,97.09
1077.00,97.10
1076.00,97.11
1075.00,97.12
1074.00,97.13
1073.00,97.15
1072.00,97.16
1071.00,97.18
1070.00,97.19
1069.00,97.20
1068.00,97.20
1067.00,97.20
1066.00,97.21
1065.00,97.22
1064.00,97.22
1063.00,97.22
1062.00,97.22
1061.00,97.23
1060.00,97.23
1059.00,97.23
1058.00,97.22
1057.00,97.20
1056.00,97.19
1055.00,97.19
1054.00,97.20
1053.00,97.21
1052.00,97.20
1051.00,97.19
1050.00,97.18
1049.00,97.16
1048.00,97.15
1047.00,97.14
1046.00,97.14
1045.00,97.13
1044.00,97.14
1043.00,97.14
1042.00,97.15
1041.00,97.17
1040.00,97.18
1039.00,97.19
1038.00,97.19
1037.00,97.20
1036.00,97.21
1035.00,97.21
1034.00,97.22
1033.00,97.22
1032.00,97.22
1031.00,97.22
1030.00,97.22
1029.00,97.22
1028.00,97.23
1027.00,97.25
1026.00,97.26
1025.00,97.28
1024.00,97.30
1023.00,97.32
1022.00,97.32
1021.00,97.32
1020.00,97.31
1019.00,97.29
1018.00,97.28
1017.00,97.29
1016.00,97.30
1015.00,97.32
1014.00,97.35
1013.00,97.37
1012.00,97.39
1011.00,97.41
1010.00,97.44
1009.00,97.48
1008.00,97.52
1007.00,97.55
1006.00,97.58
1005.00,97.58
1004.00,97.57
1003.00,97.53
1002.00,97.48
1001.00,97.41
1000.00,97.31
999.00,97.22
998.00,97.16
997.00,97.15
996.00,97.18
995.00,97.26
994.00,97.34
993.00,97.43
992.00,97.51
991.00,97.57
990.00,97.61
989.00,97.65
988.00,97.68
987.00,97.70
986.00,97.73
985.00,97.74
984.00,97.76
983.00,97.77
982.00,97.78
981.00,97.78
980.00,97.76
979.00,97.71
978.00,97.65
977.00,97.57
976.00,97.48
975.00,97.37
974.00,97.28
973.00,97.20
972.00,97.17
971.00,97.19
970.00,97.26
969.00,97.37
968.00,97.48
967.00,97.58
966.00,97.66
965.00,97.72
964.00,97.76
963.00,97.80
962.00,97.82
961.00,97.84
960.00,97.85
959.00,97.87
958.00,97.89
957.00,97.90
956.00,97.91
955.00,97.92
954.00,97.92
953.00,97.93
952.00,97.94
951.00,97.95
950.00,97.96
949.00,97.96
948.00,97.97
947.00,97.97
946.00,97.97
945.00,97.96
944.00,97.96
943.00,97.95
942.00,97.93
941.00,97.92
940.00,97.91
939.00,97.90
938.00,97.91
937.00,97.93
936.00,97.95
935.00,97.97
934.00,97.98
933.00,97.98
932.00,97.98
931.00,97.98
930.00,97.98
929.00,97.99
928.00,97.99
927.00,98.00
926.00,98.00
925.00,98.00
924.00,98.00
923.00,98.01
922.00,98.01
921.00,98.02
920.00,98.02
919.00,98.02
918.00,98.01
917.00,98.00
916.00,98.00
915.00,98.01
914.00,98.01
913.00,98.02
912.00,98.02
911.00,98.01
910.00,98.00
909.00,97.99
908.00,97.99
907.00,97.99
906.00,97.98
905.00,97.96
904.00,97.93
903.00,97.88
902.00,97.84
901.00,97.79
900.00,97.76
899.00,97.74
898.00,97.74
897.00,97.76
896.00,97.79
895.00,97.83
894.00,97.86
893.00,97.89
892.00,97.92
891.00,97.94
890.00,97.94
889.00,97.94
888.00,97.93
887.00,97.93
886.00,97.93
885.00,97.92
884.00,97.93
883.00,97.93
882.00,97.93
881.00,97.94
880.00,97.94
879.00,97.95
878.00,97.96
877.00,97.96
876.00,97.95
875.00,97.94
874.00,97.93
873.00,97.92
872.00,97.92
871.00,97.93
870.00,97.93
869.00,97.93
868.00,97.92
867.00,97.92
866.00,97.92
865.00,97.92
864.00,97.91
863.00,97.89
862.00,97.89
861.00,97.88
860.00,97.88
859.00,97.88
858.00,97.88
857.00,97.87
856.00,97.87
855.00,97.87
854.00,97.87
853.00,97.87
852.00,97.86
851.00,97.85
850.00,97.84
849.00,97.83
848.00,97.83
847.00,97.81
846.00,97.77
845.00,97.69
844.00,97.58
843.00,97.43
842.00,97.27
841.00,97.15
840.00,97.10
839.00,97.14
838.00,97.24
837.00,97.35
836.00,97.43
835.00,97.48
834.00,97.49
833.00,97.49
832.00,97.47
831.00,97.45
830.00,97.43
829.00,97.41
828.00,97.38
827.00,97.35
826.00,97.32
825.00,97.29
824.00,97.27
823.00,97.25
822.00,97.24
821.00,97.24
820.00,97.25
819.00,97.27
818.00,97.29
817.00,97.31
816.00,97.31
815.00,97.31
814.00,97.29
813.00,97.24
812.00,97.18
811.00,97.12
810.00,97.06
809.00,97.03
808.00,97.03
807.00,97.05
806.00,97.07
805.00,97.09
804.00,97.10
803.00,97.11
802.00,97.12
801.00,97.12
800.00,97.12
799.00,97.12
798.00,97.13
797.00,97.16
796.00,97.21
795.00,97.26
794.00,97.29
793.00,97.32
792.00,97.35
791.00,97.39
790.00,97.43
789.00,97.47
788.00,97.50
787.00,97.53
786.00,97.55
785.00,97.57
784.00,97.59
783.00,97.61
782.00,97.63
781.00,97.65
780.00,97.67
779.00,97.68
778.00,97.69
777.00,97.69
776.00,97.69
775.00,97.70
774.00,97.70
773.00,97.70
772.00,97.69
771.00,97.69
770.00,97.70
769.00,97.71
768.00,97.72
767.00,97.73
766.00,97.73
765.00,97.73
764.00,97.73
763.00,97.74
762.00,97.74
761.00,97.73
760.00,97.73
759.00,97.73
758.00,97.73
757.00,97.73
756.00,97.73
755.00,97.72
754.00,97.71
753.00,97.72
752.00,97.72
751.00,97.72
750.00,97.72
749.00,97.72
748.00,97.71
747.00,97.72
746.00,97.72
745.00,97.73
744.00,97.74
743.00,97.74
742.00,97.73
741.00,97.70
740.00,97.68
739.00,97.67
738.00,97.67
737.00,97.68
736.00,97.69
735.00,97.70
734.00,97.70
733.00,97.70
732.00,97.70
731.00,97.69
730.00,97.68
729.00,97.68
728.00,97.68
727.00,97.68
726.00,97.68
725.00,97.68
724.00,97.68
723.00,97.68
722.00,97.67
721.00,97.65
720.00,97.64
719.00,97.64
718.00,97.63
717.00,97.63
716.00,97.63
715.00,97.63
714.00,97.62
713.00,97.63
712.00,97.63
711.00,97.64
710.00,97.64
709.00,97.64
708.00,97.63
707.00,97.63
706.00,97.62
705.00,97.61
704.00,97.60
703.00,97.59
702.00,97.58
701.00,97.58
700.00,97.58
699.00,97.58
698.00,97.59
697.00,97.60
696.00,97.60
695.00,97.60
694.00,97.60
693.00,97.61
692.00,97.61
691.00,97.61
690.00,97.60
689.00,97.59
688.00,97.58
687.00,97.58
686.00,97.59
685.00,97.59
684.00,97.60
683.00,97.59
682.00,97.58
681.00,97.55
680.00,97.53
679.00,97.53
678.00,97.54
677.00,97.56
676.00,97.57
675.00,97.57
674.00,97.57
673.00,97.58
672.00,97.61
671.00,97.66
670.00,97.74
669.00,97.86
668.00,97.93
667.00,97.87
666.00,97.77
665.00,97.69
664.00,97.63
663.00,97.59
662.00,97.57
661.00,97.57
660.00,97.56
659.00,97.55
658.00,97.55
657.00,97.55
656.00,97.55
655.00,97.54
654.00,97.52
653.00,97.50
652.00,97.49
651.00,97.48
650.00,97.50
649.00,97.51
648.00,97.53
647.00,97.53
646.00,97.52
645.00,97.50
644.00,97.47
643.00,97.46
642.00,97.46
641.00,97.47
640.00,97.48
639.00,97.48
638.00,97.48
637.00,97.47
636.00,97.46
635.00,97.46
634.00,97.45
633.00,97.44
632.00,97.43
631.00,97.43
630.00,97.45
629.00,97.45
628.00,97.45
627.00,97.43
626.00,97.42
625.00,97.40
624.00,97.40
623.00,97.42
622.00,97.44
621.00,97.44
620.00,97.42
619.00,97.40
618.00,97.38
617.00,97.37
616.00,97.36
615.00,97.35
614.00,97.37
613.00,97.39
612.00,97.41
611.00,97.42
610.00,97.42
609.00,97.41
608.00,97.39
607.00,97.38
606.00,97.38
605.00,97.39
604.00,97.41
603.00,97.42
602.00,97.42
601.00,97.41
600.00,97.41
599.00,97.41
598.00,97.40
597.00,97.40
596.00,97.39
595.00,97.38
594.00,97.38
593.00,97.38
592.00,97.37
591.00,97.37
590.00,97.36
589.00,97.36
588.00,97.36
587.00,97.37
586.00,97.37
585.00,97.38
584.00,97.38
583.00,97.39
582.00,97.40
581.00,97.41
580.00,97.43
579.00,97.42
578.00,97.40
577.00,97.38
576.00,97.37
575.00,97.38
574.00,97.40
573.00,97.40
572.00,97.39
571.00,97.38
570.00,97.39
569.00,97.40
568.00,97.42
567.00,97.43
566.00,97.43
565.00,97.44
564.00,97.45
563.00,97.45
562.00,97.44
561.00,97.43
560.00,97.40
559.00,97.37
558.00,97.35
557.00,97.35
556.00,97.36
555.00,97.38
554.00,97.40
553.00,97.40
552.00,97.39
551.00,97.37
550.00,97.36
549.00,97.38
548.00,97.40
547.00,97.42
546.00,97.41
545.00,97.40
544.00,97.37
543.00,97.36
542.00,97.34
541.00,97.32
540.00,97.30
539.00,97.28
538.00,97.27
537.00,97.28
536.00,97.32
535.00,97.34
534.00,97.35
533.00,97.32
532.00,97.29
531.00,97.26
530.00,97.24
529.00,97.22
528.00,97.19
527.00,97.16
526.00,97.13
525.00,97.12
524.00,97.13
523.00,97.12
522.00,97.10
521.00,97.07
520.00,97.05
519.00,97.01
518.00,96.98
517.00,96.94
516.00,96.91
515.00,96.92
514.00,96.94
513.00,96.97
512.00,96.98
511.00,96.99
510.00,96.98
509.00,96.97
508.00,96.97
507.00,96.97
506.00,96.97
505.00,96.96
504.00,96.95
503.00,96.93
502.00,96.92
501.00,96.93
500.00,96.95
499.00,96.98
498.00,97.00
497.00,97.00
496.00,96.98
495.00,96.96
494.00,96.95
493.00,96.95
492.00,96.97
491.00,96.98
490.00,96.99
489.00,97.01
488.00,97.04
487.00,97.06
486.00,97.06
485.00,97.06
484.00,97.05
483.00,97.04
482.00,97.03
481.00,97.03
480.00,97.06
479.00,97.09
478.00,97.10
477.00,97.07
476.00,97.03
475.00,96.98
474.00,96.91
473.00,96.83
472.00,96.79
471.00,96.82
470.00,96.88
469.00,96.96
468.00,97.02
467.00,97.07
466.00,97.11
465.00,97.12
464.00,97.10
463.00,97.05
462.00,96.99
461.00,96.94
460.00,96.92
459.00,96.96
458.00,97.02
457.00,97.05
456.00,97.02
455.00,96.97
454.00,96.95
453.00,96.96
452.00,97.00
451.00,97.05
450.00,97.11
449.00,97.15
448.00,97.19
447.00,97.24
446.00,97.28
445.00,97.31
444.00,97.34
443.00,97.36
442.00,97.36
441.00,97.31
440.00,97.26
439.00,97.25
438.00,97.30
437.00,97.38
436.00,97.44
435.00,97.46
434.00,97.41
433.00,97.31
432.00,97.22
431.00,97.16
430.00,97.13
429.00,97.13
428.00,97.18
427.00,97.25
426.00,97.29
425.00,97.27
424.00,97.21
423.00,97.21
422.00,97.27
421.00,97.34
420.00,97.37
419.00,97.35
418.00,97.29
417.00,97.20
416.00,97.12
415.00,97.11
414.00,97.17
413.00,97.24
412.00,97.25
411.00,97.21
410.00,97.21
409.00,97.27
408.00,97.32
407.00,97.26
406.00,97.09
405.00,96.88
404.00,96.72
403.00,96.66
402.00,96.68
401.00,96.74
400.00,96.79
