Created as New Dataset,Sample 708 By Administrator Date Monday, September 21 2026
cm-1,%T
4000.00,99.56
3999.00,99.56
3998.00,99.55
3997.00,99.55
3996.00,99.56
3995.00,99.56
3994.00,99.56
3993.00,99.56
3992.00,99.56
3991.00,99.56
3990.00,99.56
3989.00,99.57
3988.00,99.58
3987.00,99.58
3986.00,99.58
3985.00,99.58
3984.00,99.58
3983.00,99.58
3982.00,99.58
3981.00,99.58
3980.00,99.57
3979.00,99.57
3978.00,99.57
3977.00,99.58
3976.00,99.58
3975.00,99.59
3974.00,99.59
3973.00,99.59
3972.00,99.59
3971.00,99.59
3970.00,99.59
3969.00,99.59
3968.00,99.58
3967.00,99.58
3966.00,99.58
3965.00,99.58
3964.00,99.58
3963.00,99.58
3962.00,99.58
3961.00,99.59
3960.00,99.59
3959.00,99.59
3958.00,99.59
3957.00,99.59
3956.00,99.59
3955.00,99.59
3954.00,99.59
3953.00,99.59
3952.00,99.60
3951.00,99.60
3950.00,99.61
3949.00,99.61
3948.00,99.61
3947.00,99.60
3946.00,99.60
3945.00,99.60
3944.00,99.60
3943.00,99.59
3942.00,99.59
3941.00,99.58
3940.00,99.58
3939.00,99.58
3938.00,99.58
3937.00,99.58
3936.00,99.58
3935.00,99.58
3934.00,99.58
3933.00,99.58
3932.00,99.58
3931.00,99.57
3930.00,99.57
3929.00,99.58
3928.00,99.58
3927.00,99.59
3926.00,99.59
3925.00,99.59
3924.00,99.59
3923.00,99.58
3922.00,99.58
3921.00,99.58
3920.00,99.58
3919.00,99.58
3918.00,99.58
3917.00,99.58
3916.00,99.59
3915.00,99.59
3914.00,99.59
3913.00,99.59
3912.00,99.59
3911.00,99.60
3910.00,99.60
3909.00,99.60
3908.00,99.60
3907.00,99.59
3906.00,99.59
3905.00,99.59
3904.00,99.59
3903.00,99.60
3902.00,99.61
3901.00,99.61
3900.00,99.62
3899.00,99.62
3898.00,99.61
3897.00,99.61
3896.00,99.61
3895.00,99.61
3894.00,99.61
3893.00,99.62
3892.00,99.62
3891.00,99.61
3890.00,99.61
3889.00,99.60
3888.00,99.60
3887.00,99.60
3886.00,99.59
3885.00,99.59
3884.00,99.60
3883.00,99.61
3882.00,99.62
3881.00,99.62
3880.00,99.61
3879.00,99.61
3878.00,99.61
3877.00,99.61
3876.00,99.62
3875.00,99.61
3874.00,99.61
3873.00,99.60
3872.00,99.60
3871.00,99.61
3870.00,99.62
3869.00,99.62
3868.00,99.62
3867.00,99.62
3866.00,99.63
3865.00,99.62
3864.00,99.62
3863.00,99.61
3862.00,99.60
3861.00,99.59
3860.00,99.59
3859.00,99.59
3858.00,99.59
3857.00,99.59
3856.00,99.61
3855.00,99.62
3854.00,99.63
3853.00,99.63
3852.00,99.63
3851.00,99.64
3850.00,99.64
3849.00,99.63
3848.00,99.63
3847.00,99.62
3846.00,99.62
3845.00,99.61
3844.00,99.61
3843.00,99.61
3842.00,99.61
3841.00,99.61
3840.00,99.62
3839.00,99.62
3838.00,99.62
3837.00,99.62
3836.00,99.63
3835.00,99.63
3834.00,99.63
3833.00,99.64
3832.00,99.64
3831.00,99.64
3830.00,99.64
3829.00,99.63
3828.00,99.63
3827.00,99.62
3826.00,99.62
3825.00,99.62
3824.00,99.62
3823.00,99.62
3822.00,99.62
3821.00,99.61
3820.00,99.61
3819.00,99.61
3818.00,99.61
3817.00,99.61
3816.00,99.61
3815.00,99.61
3814.00,99.62
3813.00,99.62
3812.00,99.62
3811.00,99.62
3810.00,99.61
3809.00,99.61
3808.00,99.61
3807.00,99.61
3806.00,99.61
3805.00,99.62
3804.00,99.63
3803.00,99.63
3802.00,99.63
3801.00,99.62
3800.00,99.62
3799.00,99.63
3798.00,99.64
3797.00,99.65
3796.00,99.65
3795.00,99.64
3794.00,99.64
3793.00,99.63
3792.00,99.62
3791.00,99.61
3790.00,99.60
3789.00,99.60
3788.00,99.60
3787.00,99.60
3786.00,99.61
3785.00,99.62
3784.00,99.62
3783.00,99.63
3782.00,99.64
3781.00,99.65
3780.00,99.65
3779.00,99.65
3778.00,99.64
3777.00,99.63
3776.00,99.63
3775.00,99.62
3774.00,99.62
3773.00,99.62
3772.00,99.61
3771.00,99.61
3770.00,99.61
3769.00,99.60
3768.00,99.61
3767.00,99.61
3766.00,99.61
3765.00,99.62
3764.00,99.61
3763.00,99.61
3762.00,99.61
3761.00,99.61
3760.00,99.61
3759.00,99.61
3758.00,99.62
3757.00,99.62
3756.00,99.62
3755.00,99.62
3754.00,99.61
3753.00,99.61
3752.00,99.60
3751.00,99.60
3750.00,99.59
3749.00,99.59
3748.00,99.60
3747.00,99.61
3746.00,99.63
3745.00,99.64
3744.00,99.64
3743.00,99.64
3742.00,99.64
3741.00,99.64
3740.00,99.63
3739.00,99.62
3738.00,99.62
3737.00,99.62
3736.00,99.62
3735.00,99.64
3734.00,99.66
3733.00,99.67
3732.00,99.68
3731.00,99.68
3730.00,99.67
3729.00,99.66
3728.00,99.65
3727.00,99.63
3726.00,99.62
3725.00,99.62
3724.00,99.62
3723.00,99.63
3722.00,99.64
3721.00,99.64
3720.00,99.64
3719.00,99.64
3718.00,99.64
3717.00,99.64
3716.00,99.64
3715.00,99.63
3714.00,99.63
3713.00,99.62
3712.00,99.62
3711.00,99.62
3710.00,99.63
3709.00,99.64
3708.00,99.65
3707.00,99.66
3706.00,99.67
3705.00,99.67
3704.00,99.67
3703.00,99.67
3702.00,99.67
3701.00,99.66
3700.00,99.65
3699.00,99.64
3698.00,99.64
3697.00,99.64
3696.00,99.63
3695.00,99.63
3694.00,99.63
3693.00,99.63
3692.00,99.63
3691.00,99.64
3690.00,99.65
3689.00,99.65
3688.00,99.65
3687.00,99.66
3686.00,99.66
3685.00,99.66
3684.00,99.66
3683.00,99.65
3682.00,99.65
3681.00,99.64
3680.00,99.64
3679.00,99.64
3678.00,99.65
3677.00,99.66
3676.00,99.66
3675.00,99.66
3674.00,99.66
3673.00,99.67
3672.00,99.69
3671.00,99.70
3670.00,99.71
3669.00,99.71
3668.00,99.71
3667.00,99.70
3666.00,99.70
3665.00,99.69
3664.00,99.69
3663.00,99.68
3662.00,99.68
3661.00,99.67
3660.00,99.67
3659.00,99.66
3658.00,99.66
3657.00,99.66
3656.00,99.66
3655.00,99.66
3654.00,99.66
3653.00,99.67
3652.00,99.67
3651.00,99.67
3650.00,99.67
3649.00,99.68
3648.00,99.69
3647.00,99.70
3646.00,99.70
3645.00,99.69
3644.00,99.68
3643.00,99.68
3642.00,99.68
3641.00,99.68
3640.00,99.68
3639.00,99.67
3638.00,99.66
3637.00,99.65
3636.00,99.64
3635.00,99.64
3634.00,99.64
3633.00,99.64
3632.00,99.65
3631.00,99.65
3630.00,99.66
3629.00,99.66
3628.00,99.66
3627.00,99.67
3626.00,99.68
3625.00,99.69
3624.00,99.70
3623.00,99.70
3622.00,99.70
3621.00,99.71
3620.00,99.71
3619.00,99.71
3618.00,99.71
3617.00,99.71
3616.00,99.70
3615.00,99.69
3614.00,99.68
3613.00,99.67
3612.00,99.66
3611.00,99.66
3610.00,99.66
3609.00,99.66
3608.00,99.67
3607.00,99.68
3606.00,99.69
3605.00,99.69
3604.00,99.69
3603.00,99.70
3602.00,99.70
3601.00,99.70
3600.00,99.70
3599.00,99.69
3598.00,99.69
3597.00,99.68
3596.00,99.67
3595.00,99.66
3594.00,99.66
3593.00,99.65
3592.00,99.66
3591.00,99.66
3590.00,99.66
3589.00,99.66
3588.00,99.66
3587.00,99.66
3586.00,99.66
3585.00,99.66
3584.00,99.66
3583.00,99.65
3582.00,99.65
3581.00,99.65
3580.00,99.65
3579.00,99.66
3578.00,99.66
3577.00,99.66
3576.00,99.66
3575.00,99.66
3574.00,99.65
3573.00,99.65
3572.00,99.65
3571.00,99.66
3570.00,99.66
3569.00,99.65
3568.00,99.64
3567.00,99.64
3566.00,99.64
3565.00,99.64
3564.00,99.63
3563.00,99.63
3562.00,99.62
3561.00,99.62
3560.00,99.62
3559.00,99.63
3558.00,99.63
3557.00,99.63
3556.00,99.62
3555.00,99.61
3554.00,99.60
3553.00,99.60
3552.00,99.59
3551.00,99.59
3550.00,99.59
3549.00,99.58
3548.00,99.57
3547.00,99.56
3546.00,99.56
3545.00,99.56
3544.00,99.57
3543.00,99.57
3542.00,99.57
3541.00,99.56
3540.00,99.56
3539.00,99.55
3538.00,99.55
3537.00,99.55
3536.00,99.54
3535.00,99.54
3534.00,99.53
3533.00,99.53
3532.00,99.53
3531.00,99.52
3530.00,99.51
3529.00,99.50
3528.00,99.49
3527.00,99.49
3526.00,99.49
3525.00,99.49
3524.00,99.49
3523.00,99.49
3522.00,99.48
3521.00,99.48
3520.00,99.48
3519.00,99.47
3518.00,99.47
3517.00,99.46
3516.00,99.45
3515.00,99.44
3514.00,99.43
3513.00,99.43
3512.00,99.42
3511.00,99.42
3510.00,99.41
3509.00,99.40
3508.00,99.40
3507.00,99.40
3506.00,99.40
3505.00,99.39
3504.00,99.37
3503.00,99.36
3502.00,99.35
3501.00,99.35
3500.00,99.35
3499.00,99.35
3498.00,99.35
3497.00,99.35
3496.00,99.35
3495.00,99.34
3494.00,99.34
3493.00,99.33
3492.00,99.32
3491.00,99.32
3490.00,99.32
3489.00,99.32
3488.00,99.33
3487.00,99.33
3486.00,99.33
3485.00,99.33
3484.00,99.33
3483.00,99.33
3482.00,99.33
3481.00,99.33
3480.00,99.33
3479.00,99.33
3478.00,99.33
3477.00,99.33
3476.00,99.33
3475.00,99.33
3474.00,99.32
3473.00,99.32
3472.00,99.32
3471.00,99.33
3470.00,99.33
3469.00,99.32
3468.00,99.32
3467.00,99.32
3466.00,99.31
3465.00,99.31
3464.00,99.31
3463.00,99.31
3462.00,99.31
3461.00,99.31
3460.00,99.31
3459.00,99.31
3458.00,99.30
3457.00,99.29
3456.00,99.29
3455.00,99.28
3454.00,99.28
3453.00,99.28
3452.00,99.28
3451.00,99.28
3450.00,99.28
3449.00,99.28
3448.00,99.28
3447.00,99.28
3446.00,99.27
3445.00,99.27
3444.00,99.26
3443.00,99.25
3442.00,99.25
3441.00,99.25
3440.00,99.25
3439.00,99.24
3438.00,99.24
3437.00,99.24
3436.00,99.24
3435.00,99.24
3434.00,99.24
3433.00,99.24
3432.00,99.24
3431.00,99.24
3430.00,99.23
3429.00,99.23
3428.00,99.23
3427.00,99.22
3426.00,99.22
3425.00,99.21
3424.00,99.21
3423.00,99.20
3422.00,99.19
3421.00,99.18
3420.00,99.18
3419.00,99.17
3418.00,99.17
3417.00,99.17
3416.00,99.17
3415.00,99.17
3414.00,99.18
3413.00,99.18
3412.00,99.18
3411.00,99.18
3410.00,99.18
3409.00,99.18
3408.00,99.17
3407.00,99.17
3406.00,99.16
3405.00,99.16
3404.00,99.16
3403.00,99.16
3402.00,99.16
3401.00,99.16
3400.00,99.15
3399.00,99.14
3398.00,99.14
3397.00,99.13
3396.00,99.13
3395.00,99.14
3394.00,99.14
3393.00,99.14
3392.00,99.14
3391.00,99.14
3390.00,99.14
3389.00,99.13
3388.00,99.13
3387.00,99.13
3386.00,99.13
3385.00,99.13
3384.00,99.13
3383.00,99.13
3382.00,99.13
3381.00,99.12
3380.00,99.12
3379.00,99.12
3378.00,99.12
3377.00,99.11
3376.00,99.10
3375.00,99.09
3374.00,99.08
3373.00,99.08
3372.00,99.08
3371.00,99.07
3370.00,99.07
3369.00,99.07
3368.00,99.07
3367.00,99.07
3366.00,99.06
3365.00,99.06
3364.00,99.05
3363.00,99.04
3362.00,99.03
3361.00,99.03
3360.00,99.02
3359.00,99.02
3358.00,99.01
3357.00,99.00
3356.00,99.00
3355.00,98.99
3354.00,98.99
3353.00,98.98
3352.00,98.98
3351.00,98.97
3350.00,98.97
3349.00,98.96
3348.00,98.96
3347.00,98.95
3346.00,98.95
3345.00,98.94
3344.00,98.94
3343.00,98.93
3342.00,98.93
3341.00,98.92
3340.00,98.91
3339.00,98.90
3338.00,98.90
3337.00,98.89
3336.00,98.89
3335.00,98.88
3334.00,98.88
3333.00,98.87
3332.00,98.87
3331.00,98.86
3330.00,98.86
3329.00,98.85
3328.00,98.84
3327.00,98.83
3326.00,98.83
3325.00,98.83
3324.00,98.82
3323.00,98.82
3322.00,98.82
3321.00,98.81
3320.00,98.80
3319.00,98.79
3318.00,98.78
3317.00,98.78
3316.00,98.78
3315.00,98.78
3314.00,98.78
3313.00,98.77
3312.00,98.77
3311.00,98.77
3310.00,98.77
3309.00,98.76
3308.00,98.76
3307.00,98.77
3306.00,98.78
3305.00,98.78
3304.00,98.78
3303.00,98.78
3302.00,98.78
3301.00,98.78
3300.00,98.78
3299.00,98.78
3298.00,98.78
3297.00,98.79
3296.00,98.80
3295.00,98.81
3294.00,98.82
3293.00,98.83
3292.00,98.84
3291.00,98.84
3290.00,98.84
3289.00,98.84
3288.00,98.84
3287.00,98.84
3286.00,98.85
3285.00,98.85
3284.00,98.85
3283.00,98.85
3282.00,98.85
3281.00,98.85
3280.00,98.85
3279.00,98.86
3278.00,98.86
3277.00,98.86
3276.00,98.87
3275.00,98.87
3274.00,98.88
3273.00,98.88
3272.00,98.88
3271.00,98.89
3270.00,98.89
3269.00,98.88
3268.00,98.88
3267.00,98.88
3266.00,98.88
3265.00,98.89
3264.00,98.89
3263.00,98.90
3262.00,98.90
3261.00,98.90
3260.00,98.89
3259.00,98.89
3258.00,98.89
3257.00,98.89
3256.00,98.89
3255.00,98.90
3254.00,98.90
3253.00,98.89
3252.00,98.89
3251.00,98.89
3250.00,98.88
3249.00,98.88
3248.00,98.87
3247.00,98.87
3246.00,98.87
3245.00,98.86
3244.00,98.86
3243.00,98.86
3242.00,98.86
3241.00,98.86
3240.00,98.86
3239.00,98.86
3238.00,98.86
3237.00,98.86
3236.00,98.87
3235.00,98.87
3234.00,98.87
3233.00,98.87
3232.00,98.87
3231.00,98.87
3230.00,98.87
3229.00,98.86
3228.00,98.86
3227.00,98.85
3226.00,98.85
3225.00,98.85
3224.00,98.85
3223.00,98.85
3222.00,98.85
3221.00,98.85
3220.00,98.84
3219.00,98.84
3218.00,98.84
3217.00,98.84
3216.00,98.84
3215.00,98.84
3214.00,98.84
3213.00,98.84
3212.00,98.85
3211.00,98.85
3210.00,98.86
3209.00,98.87
3208.00,98.87
3207.00,98.86
3206.00,98.86
3205.00,98.86
3204.00,98.87
3203.00,98.88
3202.00,98.88
3201.00,98.89
3200.00,98.89
3199.00,98.89
3198.00,98.89
3197.00,98.89
3196.00,98.89
3195.00,98.90
3194.00,98.91
3193.00,98.92
3192.00,98.93
3191.00,98.93
3190.00,98.94
3189.00,98.94
3188.00,98.95
3187.00,98.96
3186.00,98.98
3185.00,98.98
3184.00,98.99
3183.00,98.99
3182.00,98.99
3181.00,99.00
3180.00,99.01
3179.00,99.01
3178.00,99.02
3177.00,99.02
3176.00,99.03
3175.00,99.03
3174.00,99.04
3173.00,99.04
3172.00,99.05
3171.00,99.06
3170.00,99.07
3169.00,99.08
3168.00,99.09
3167.00,99.09
3166.00,99.09
3165.00,99.09
3164.00,99.09
3163.00,99.09
3162.00,99.09
3161.00,99.09
3160.00,99.09
3159.00,99.10
3158.00,99.10
3157.00,99.10
3156.00,99.11
3155.00,99.11
3154.00,99.11
3153.00,99.12
3152.00,99.12
3151.00,99.12
3150.00,99.12
3149.00,99.13
3148.00,99.13
3147.00,99.14
3146.00,99.14
3145.00,99.14
3144.00,99.13
3143.00,99.13
3142.00,99.13
3141.00,99.14
3140.00,99.15
3139.00,99.15
3138.00,99.16
3137.00,99.16
3136.00,99.16
3135.00,99.17
3134.00,99.17
3133.00,99.17
3132.00,99.17
3131.00,99.18
3130.00,99.18
3129.00,99.18
3128.00,99.19
3127.00,99.19
3126.00,99.20
3125.00,99.21
3124.00,99.21
3123.00,99.22
3122.00,99.23
3121.00,99.23
3120.00,99.24
3119.00,99.24
3118.00,99.25
3117.00,99.25
3116.00,99.26
3115.00,99.26
3114.00,99.27
3113.00,99.27
3112.00,99.27
3111.00,99.26
3110.00,99.26
3109.00,99.26
3108.00,99.26
3107.00,99.26
3106.00,99.26
3105.00,99.26
3104.00,99.26
3103.00,99.26
3102.00,99.26
3101.00,99.26
3100.00,99.26
3099.00,99.27
3098.00,99.28
3097.00,99.28
3096.00,99.28
3095.00,99.28
3094.00,99.28
3093.00,99.28
3092.00,99.28
3091.00,99.29
3090.00,99.29
3089.00,99.29
3088.00,99.29
3087.00,99.28
3086.00,99.28
3085.00,99.27
3084.00,99.27
3083.00,99.28
3082.00,99.29
3081.00,99.29
3080.00,99.29
3079.00,99.28
3078.00,99.28
3077.00,99.28
3076.00,99.28
3075.00,99.27
3074.00,99.27
3073.00,99.27
3072.00,99.26
3071.00,99.26
3070.00,99.25
3069.00,99.25
3068.00,99.25
3067.00,99.25
3066.00,99.25
3065.00,99.26
3064.00,99.26
3063.00,99.26
3062.00,99.26
3061.00,99.25
3060.00,99.25
3059.00,99.25
3058.00,99.24
3057.00,99.24
3056.00,99.24
3055.00,99.23
3054.00,99.23
3053.00,99.22
3052.00,99.22
3051.00,99.22
3050.00,99.22
3049.00,99.22
3048.00,99.22
3047.00,99.22
3046.00,99.22
3045.00,99.21
3044.00,99.21
3043.00,99.21
3042.00,99.21
3041.00,99.20
3040.00,99.20
3039.00,99.19
3038.00,99.19
3037.00,99.18
3036.00,99.17
3035.00,99.17
3034.00,99.17
3033.00,99.16
3032.00,99.15
3031.00,99.13
3030.00,99.12
3029.00,99.11
3028.00,99.10
3027.00,99.10
3026.00,99.09
3025.00,99.09
3024.00,99.08
3023.00,99.06
3022.00,99.04
3021.00,99.02
3020.00,99.00
3019.00,98.98
3018.00,98.96
3017.00,98.95
3016.00,98.93
3015.00,98.91
3014.00,98.90
3013.00,98.87
3012.00,98.85
3011.00,98.82
3010.00,98.79
3009.00,98.76
3008.00,98.73
3007.00,98.70
3006.00,98.67
3005.00,98.63
3004.00,98.60
3003.00,98.57
3002.00,98.53
3001.00,98.48
3000.00,98.43
2999.00,98.37
2998.00,98.31
2997.00,98.24
2996.00,98.17
2995.00,98.10
2994.00,98.02
2993.00,97.94
2992.00,97.84
2991.00,97.73
2990.00,97.61
2989.00,97.48
2988.00,97.33
2987.00,97.17
2986.00,96.99
2985.00,96.80
2984.00,96.58
2983.00,96.33
2982.00,96.04
2981.00,95.73
2980.00,95.37
2979.00,94.97
2978.00,94.52
2977.00,93.99
2976.00,93.40
2975.00,92.71
2974.00,91.94
2973.00,91.07
2972.00,90.10
2971.00,89.02
2970.00,87.83
2969.00,86.53
2968.00,85.13
2967.00,83.65
2966.00,82.11
2965.00,80.56
2964.00,79.04
2963.00,77.63
2962.00,76.38
2961.00,75.35
2960.00,74.55
2959.00,73.92
2958.00,73.41
2957.00,72.91
2956.00,72.35
2955.00,71.67
2954.00,70.87
2953.00,70.03
2952.00,69.26
2951.00,68.70
2950.00,68.49
2949.00,68.72
2948.00,69.46
2947.00,70.66
2946.00,72.24
2945.00,74.05
2944.00,75.90
2943.00,77.62
2942.00,79.08
2941.00,80.21
2940.00,80.96
2939.00,81.36
2938.00,81.43
2937.00,81.19
2936.00,80.68
2935.00,79.93
2934.00,78.96
2933.00,77.81
2932.00,76.51
2931.00,75.10
2930.00,73.62
2929.00,72.11
2928.00,70.63
2927.00,69.21
2926.00,67.86
2925.00,66.59
2924.00,65.37
2923.00,64.19
2922.00,63.02
2921.00,61.86
2920.00,60.76
2919.00,59.80
2918.00,59.07
2917.00,58.67
2916.00,58.67
2915.00,59.10
2914.00,59.95
2913.00,61.14
2912.00,62.56
2911.00,64.04
2910.00,65.48
2909.00,66.78
2908.00,67.95
2907.00,69.01
2906.00,70.01
2905.00,70.99
2904.00,71.96
2903.00,72.95
2902.00,73.93
2901.00,74.91
2900.00,75.86
2899.00,76.77
2898.00,77.63
2897.00,78.42
2896.00,79.14
2895.00,79.76
2894.00,80.30
2893.00,80.74
2892.00,81.09
2891.00,81.34
2890.00,81.51
2889.00,81.60
2888.00,81.64
2887.00,81.62
2886.00,81.55
2885.00,81.43
2884.00,81.25
2883.00,81.01
2882.00,80.72
2881.00,80.39
2880.00,80.06
2879.00,79.78
2878.00,79.59
2877.00,79.51
2876.00,79.53
2875.00,79.60
2874.00,79.67
2873.00,79.67
2872.00,79.57
2871.00,79.37
2870.00,79.11
2869.00,78.84
2868.00,78.67
2867.00,78.71
2866.00,79.07
2865.00,79.79
2864.00,80.86
2863.00,82.16
2862.00,83.55
2861.00,84.87
2860.00,86.01
2859.00,86.91
2858.00,87.54
2857.00,87.94
2856.00,88.12
2855.00,88.09
2854.00,87.87
2853.00,87.48
2852.00,86.97
2851.00,86.44
2850.00,85.96
2849.00,85.60
2848.00,85.30
2847.00,84.99
2846.00,84.57
2845.00,83.97
2844.00,83.19
2843.00,82.27
2842.00,81.29
2841.00,80.36
2840.00,79.60
2839.00,79.11
2838.00,79.00
2837.00,79.36
2836.00,80.20
2835.00,81.47
2834.00,83.05
2833.00,84.78
2832.00,86.50
2831.00,88.10
2830.00,89.49
2829.00,90.66
2828.00,91.62
2827.00,92.40
2826.00,93.04
2825.00,93.57
2824.00,94.00
2823.00,94.36
2822.00,94.67
2821.00,94.94
2820.00,95.18
2819.00,95.38
2818.00,95.56
2817.00,95.71
2816.00,95.84
2815.00,95.96
2814.00,96.07
2813.00,96.17
2812.00,96.26
2811.00,96.36
2810.00,96.46
2809.00,96.56
2808.00,96.67
2807.00,96.79
2806.00,96.90
2805.00,97.02
2804.00,97.14
2803.00,97.24
2802.00,97.34
2801.00,97.42
2800.00,97.48
2799.00,97.54
2798.00,97.59
2797.00,97.64
2796.00,97.68
2795.00,97.72
2794.00,97.76
2793.00,97.81
2792.00,97.87
2791.00,97.93
2790.00,97.99
2789.00,98.06
2788.00,98.12
2787.00,98.17
2786.00,98.23
2785.00,98.27
2784.00,98.32
2783.00,98.36
2782.00,98.40
2781.00,98.43
2780.00,98.47
2779.00,98.50
2778.00,98.53
2777.00,98.56
2776.00,98.58
2775.00,98.60
2774.00,98.61
2773.00,98.62
2772.00,98.63
2771.00,98.64
2770.00,98.64
2769.00,98.65
2768.00,98.65
2767.00,98.66
2766.00,98.67
2765.00,98.68
2764.00,98.68
2763.00,98.68
2762.00,98.68
2761.00,98.68
2760.00,98.68
2759.00,98.69
2758.00,98.69
2757.00,98.70
2756.00,98.69
2755.00,98.69
2754.00,98.69
2753.00,98.69
2752.00,98.70
2751.00,98.71
2750.00,98.72
2749.00,98.73
2748.00,98.72
2747.00,98.72
2746.00,98.71
2745.00,98.70
2744.00,98.69
2743.00,98.67
2742.00,98.66
2741.00,98.64
2740.00,98.62
2739.00,98.59
2738.00,98.57
2737.00,98.55
2736.00,98.52
2735.00,98.49
2734.00,98.46
2733.00,98.43
2732.00,98.40
2731.00,98.37
2730.00,98.33
2729.00,98.29
2728.00,98.24
2727.00,98.19
2726.00,98.14
2725.00,98.10
2724.00,98.07
2723.00,98.05
2722.00,98.06
2721.00,98.09
2720.00,98.13
2719.00,98.19
2718.00,98.25
2717.00,98.31
2716.00,98.37
2715.00,98.42
2714.00,98.47
2713.00,98.51
2712.00,98.55
2711.00,98.59
2710.00,98.62
2709.00,98.65
2708.00,98.68
2707.00,98.70
2706.00,98.73
2705.00,98.75
2704.00,98.77
2703.00,98.79
2702.00,98.80
2701.00,98.81
2700.00,98.82
2699.00,98.84
2698.00,98.85
2697.00,98.86
2696.00,98.86
2695.00,98.87
2694.00,98.86
2693.00,98.86
2692.00,98.85
2691.00,98.85
2690.00,98.85
2689.00,98.85
2688.00,98.85
2687.00,98.85
2686.00,98.85
2685.00,98.85
2684.00,98.86
2683.00,98.86
2682.00,98.86
2681.00,98.86
2680.00,98.86
2679.00,98.86
2678.00,98.85
2677.00,98.85
2676.00,98.85
2675.00,98.85
2674.00,98.85
2673.00,98.86
2672.00,98.87
2671.00,98.87
2670.00,98.87
2669.00,98.87
2668.00,98.87
2667.00,98.86
2666.00,98.86
2665.00,98.85
2664.00,98.84
2663.00,98.83
2662.00,98.83
2661.00,98.82
2660.00,98.82
2659.00,98.82
2658.00,98.83
2657.00,98.83
2656.00,98.84
2655.00,98.86
2654.00,98.87
2653.00,98.88
2652.00,98.89
2651.00,98.90
2650.00,98.91
2649.00,98.92
2648.00,98.93
2647.00,98.94
2646.00,98.94
2645.00,98.95
2644.00,98.96
2643.00,98.97
2642.00,98.98
2641.00,98.99
2640.00,98.99
2639.00,99.00
2638.00,99.01
2637.00,99.02
2636.00,99.03
2635.00,99.03
2634.00,99.03
2633.00,99.03
2632.00,99.03
2631.00,99.02
2630.00,99.02
2629.00,99.02
2628.00,99.02
2627.00,99.02
2626.00,99.01
2625.00,99.00
2624.00,99.00
2623.00,98.99
2622.00,98.99
2621.00,98.99
2620.00,98.99
2619.00,99.00
2618.00,99.01
2617.00,99.01
2616.00,99.01
2615.00,99.00
2614.00,99.00
2613.00,99.00
2612.00,99.01
2611.00,99.03
2610.00,99.04
2609.00,99.06
2608.00,99.08
2607.00,99.09
2606.00,99.10
2605.00,99.11
2604.00,99.12
2603.00,99.13
2602.00,99.14
2601.00,99.15
2600.00,99.15
2599.00,99.15
2598.00,99.15
2597.00,99.15
2596.00,99.15
2595.00,99.15
2594.00,99.14
2593.00,99.14
2592.00,99.12
2591.00,99.11
2590.00,99.10
2589.00,99.08
2588.00,99.06
2587.00,99.05
2586.00,99.03
2585.00,99.01
2584.00,99.01
2583.00,99.00
2582.00,99.01
2581.00,99.01
2580.00,99.02
2579.00,99.04
2578.00,99.06
2577.00,99.08
2576.00,99.10
2575.00,99.12
2574.00,99.13
2573.00,99.15
2572.00,99.17
2571.00,99.19
2570.00,99.21
2569.00,99.22
2568.00,99.24
2567.00,99.24
2566.00,99.25
2565.00,99.26
2564.00,99.27
2563.00,99.28
2562.00,99.28
2561.00,99.29
2560.00,99.29
2559.00,99.29
2558.00,99.30
2557.00,99.31
2556.00,99.32
2555.00,99.32
2554.00,99.33
2553.00,99.33
2552.00,99.33
2551.00,99.34
2550.00,99.35
2549.00,99.36
2548.00,99.37
2547.00,99.37
2546.00,99.38
2545.00,99.38
2544.00,99.39
2543.00,99.40
2542.00,99.40
2541.00,99.40
2540.00,99.40
2539.00,99.40
2538.00,99.39
2537.00,99.40
2536.00,99.40
2535.00,99.41
2534.00,99.41
2533.00,99.41
2532.00,99.41
2531.00,99.41
2530.00,99.42
2529.00,99.42
2528.00,99.42
2527.00,99.43
2526.00,99.43
2525.00,99.44
2524.00,99.44
2523.00,99.45
2522.00,99.46
2521.00,99.47
2520.00,99.48
2519.00,99.49
2518.00,99.49
2517.00,99.48
2516.00,99.48
2515.00,99.49
2514.00,99.50
2513.00,99.51
2512.00,99.52
2511.00,99.52
2510.00,99.52
2509.00,99.52
2508.00,99.53
2507.00,99.53
2506.00,99.54
2505.00,99.54
2504.00,99.55
2503.00,99.54
2502.00,99.54
2501.00,99.53
2500.00,99.52
2499.00,99.52
2498.00,99.53
2497.00,99.52
2496.00,99.51
2495.00,99.51
2494.00,99.51
2493.00,99.51
2492.00,99.51
2491.00,99.52
2490.00,99.52
2489.00,99.53
2488.00,99.53
2487.00,99.54
2486.00,99.54
2485.00,99.54
2484.00,99.53
2483.00,99.53
2482.00,99.53
2481.00,99.53
2480.00,99.52
2479.00,99.52
2478.00,99.53
2477.00,99.54
2476.00,99.55
2475.00,99.56
2474.00,99.56
2473.00,99.56
2472.00,99.56
2471.00,99.55
2470.00,99.55
2469.00,99.54
2468.00,99.54
2467.00,99.54
2466.00,99.54
2465.00,99.54
2464.00,99.55
2463.00,99.54
2462.00,99.54
2461.00,99.53
2460.00,99.52
2459.00,99.52
2458.00,99.52
2457.00,99.52
2456.00,99.52
2455.00,99.52
2454.00,99.53
2453.00,99.54
2452.00,99.54
2451.00,99.54
2450.00,99.54
2449.00,99.53
2448.00,99.52
2447.00,99.53
2446.00,99.53
2445.00,99.54
2444.00,99.54
2443.00,99.54
2442.00,99.54
2441.00,99.54
2440.00,99.54
2439.00,99.54
2438.00,99.54
2437.00,99.53
2436.00,99.53
2435.00,99.52
2434.00,99.51
2433.00,99.50
2432.00,99.50
2431.00,99.50
2430.00,99.50
2429.00,99.50
2428.00,99.51
2427.00,99.51
2426.00,99.51
2425.00,99.51
2424.00,99.51
2423.00,99.51
2422.00,99.51
2421.00,99.52
2420.00,99.52
2419.00,99.53
2418.00,99.53
2417.00,99.53
2416.00,99.54
2415.00,99.54
2414.00,99.55
2413.00,99.55
2412.00,99.54
2411.00,99.53
2410.00,99.52
2409.00,99.52
2408.00,99.52
2407.00,99.53
2406.00,99.54
2405.00,99.55
2404.00,99.56
2403.00,99.57
2402.00,99.57
2401.00,99.57
2400.00,99.57
2399.00,99.56
2398.00,99.55
2397.00,99.54
2396.00,99.54
2395.00,99.54
2394.00,99.54
2393.00,99.54
2392.00,99.54
2391.00,99.54
2390.00,99.55
2389.00,99.55
2388.00,99.56
2387.00,99.56
2386.00,99.56
2385.00,99.55
2384.00,99.55
2383.00,99.55
2382.00,99.56
2381.00,99.57
2380.00,99.58
2379.00,99.59
2378.00,99.61
2377.00,99.62
2376.00,99.63
2375.00,99.64
2374.00,99.65
2373.00,99.65
2372.00,99.65
2371.00,99.63
2370.00,99.61
2369.00,99.59
2368.00,99.59
2367.00,99.60
2366.00,99.62
2365.00,99.63
2364.00,99.63
2363.00,99.62
2362.00,99.61
2361.00,99.60
2360.00,99.59
2359.00,99.58
2358.00,99.57
2357.00,99.57
2356.00,99.58
2355.00,99.59
2354.00,99.61
2353.00,99.61
2352.00,99.62
2351.00,99.61
2350.00,99.60
2349.00,99.58
2348.00,99.56
2347.00,99.55
2346.00,99.55
2345.00,99.56
2344.00,99.57
2343.00,99.57
2342.00,99.57
2341.00,99.58
2340.00,99.58
2339.00,99.58
2338.00,99.57
2337.00,99.56
2336.00,99.56
2335.00,99.56
2334.00,99.57
2333.00,99.57
2332.00,99.59
2331.00,99.60
2330.00,99.61
2329.00,99.61
2328.00,99.58
2327.00,99.54
2326.00,99.50
2325.00,99.46
2324.00,99.44
2323.00,99.44
2322.00,99.47
2321.00,99.49
2320.00,99.51
2319.00,99.52
2318.00,99.52
2317.00,99.52
2316.00,99.52
2315.00,99.52
2314.00,99.53
2313.00,99.54
2312.00,99.55
2311.00,99.56
2310.00,99.56
2309.00,99.57
2308.00,99.57
2307.00,99.57
2306.00,99.56
2305.00,99.56
2304.00,99.56
2303.00,99.55
2302.00,99.55
2301.00,99.54
2300.00,99.53
2299.00,99.52
2298.00,99.53
2297.00,99.53
2296.00,99.54
2295.00,99.54
2294.00,99.53
2293.00,99.52
2292.00,99.52
2291.00,99.51
2290.00,99.50
2289.00,99.49
2288.00,99.48
2287.00,99.48
2286.00,99.48
2285.00,99.50
2284.00,99.51
2283.00,99.53
2282.00,99.53
2281.00,99.52
2280.00,99.52
2279.00,99.52
2278.00,99.53
2277.00,99.54
2276.00,99.56
2275.00,99.57
2274.00,99.57
2273.00,99.57
2272.00,99.57
2271.00,99.56
2270.00,99.55
2269.00,99.55
2268.00,99.56
2267.00,99.57
2266.00,99.59
2265.00,99.60
2264.00,99.61
2263.00,99.61
2262.00,99.60
2261.00,99.60
2260.00,99.60
2259.00,99.58
2258.00,99.57
2257.00,99.55
2256.00,99.55
2255.00,99.55
2254.00,99.57
2253.00,99.59
2252.00,99.61
2251.00,99.62
2250.00,99.62
2249.00,99.62
2248.00,99.62
2247.00,99.63
2246.00,99.64
2245.00,99.65
2244.00,99.65
2243.00,99.65
2242.00,99.64
2241.00,99.63
2240.00,99.63
2239.00,99.63
2238.00,99.63
2237.00,99.63
2236.00,99.64
2235.00,99.65
2234.00,99.65
2233.00,99.66
2232.00,99.65
2231.00,99.65
2230.00,99.66
2229.00,99.67
2228.00,99.68
2227.00,99.69
2226.00,99.69
2225.00,99.69
2224.00,99.68
2223.00,99.68
2222.00,99.69
2221.00,99.71
2220.00,99.72
2219.00,99.73
2218.00,99.72
2217.00,99.70
2216.00,99.68
2215.00,99.66
2214.00,99.65
2213.00,99.67
2212.00,99.69
2211.00,99.71
2210.00,99.71
2209.00,99.70
2208.00,99.70
2207.00,99.71
2206.00,99.71
2205.00,99.69
2204.00,99.66
2203.00,99.64
2202.00,99.64
2201.00,99.66
2200.00,99.69
2199.00,99.71
2198.00,99.72
2197.00,99.71
2196.00,99.70
2195.00,99.70
2194.00,99.71
2193.00,99.71
2192.00,99.69
2191.00,99.67
2190.00,99.66
2189.00,99.67
2188.00,99.68
2187.00,99.68
2186.00,99.67
2185.00,99.68
2184.00,99.70
2183.00,99.73
2182.00,99.75
2181.00,99.75
2180.00,99.73
2179.00,99.71
2178.00,99.71
2177.00,99.72
2176.00,99.75
2175.00,99.77
2174.00,99.79
2173.00,99.78
2172.00,99.75
2171.00,99.71
2170.00,99.66
2169.00,99.61
2168.00,99.57
2167.00,99.57
2166.00,99.59
2165.00,99.62
2164.00,99.63
2163.00,99.62
2162.00,99.61
2161.00,99.63
2160.00,99.71
2159.00,99.84
2158.00,99.95
2157.00,100.02
2156.00,100.03
2155.00,100.03
2154.00,100.03
2153.00,100.02
2152.00,100.00
2151.00,99.96
2150.00,99.93
2149.00,99.89
2148.00,99.86
2147.00,99.86
2146.00,99.88
2145.00,99.90
2144.00,99.91
2143.00,99.91
2142.00,99.90
2141.00,99.89
2140.00,99.87
2139.00,99.85
2138.00,99.83
2137.00,99.84
2136.00,99.86
2135.00,99.90
2134.00,99.92
2133.00,99.93
2132.00,99.92
2131.00,99.90
2130.00,99.88
2129.00,99.85
2128.00,99.83
2127.00,99.82
2126.00,99.82
2125.00,99.81
2124.00,99.80
2123.00,99.79
2122.00,99.80
2121.00,99.81
2120.00,99.82
2119.00,99.81
2118.00,99.78
2117.00,99.76
2116.00,99.73
2115.00,99.72
2114.00,99.71
2113.00,99.70
2112.00,99.70
2111.00,99.70
2110.00,99.70
2109.00,99.70
2108.00,99.71
2107.00,99.73
2106.00,99.74
2105.00,99.75
2104.00,99.75
2103.00,99.75
2102.00,99.74
2101.00,99.72
2100.00,99.70
2099.00,99.69
2098.00,99.71
2097.00,99.73
2096.00,99.77
2095.00,99.80
2094.00,99.82
2093.00,99.82
2092.00,99.81
2091.00,99.80
2090.00,99.78
2089.00,99.75
2088.00,99.73
2087.00,99.72
2086.00,99.72
2085.00,99.71
2084.00,99.70
2083.00,99.70
2082.00,99.70
2081.00,99.71
2080.00,99.72
2079.00,99.73
2078.00,99.74
2077.00,99.75
2076.00,99.76
2075.00,99.76
2074.00,99.77
2073.00,99.76
2072.00,99.75
2071.00,99.75
2070.00,99.77
2069.00,99.78
2068.00,99.79
2067.00,99.79
2066.00,99.77
2065.00,99.76
2064.00,99.76
2063.00,99.77
2062.00,99.79
2061.00,99.81
2060.00,99.82
2059.00,99.82
2058.00,99.81
2057.00,99.82
2056.00,99.83
2055.00,99.83
2054.00,99.80
2053.00,99.73
2052.00,99.66
2051.00,99.61
2050.00,99.62
2049.00,99.65
2048.00,99.70
2047.00,99.73
2046.00,99.74
2045.00,99.76
2044.00,99.77
2043.00,99.79
2042.00,99.81
2041.00,99.79
2040.00,99.75
2039.00,99.69
2038.00,99.66
2037.00,99.67
2036.00,99.72
2035.00,99.79
2034.00,99.85
2033.00,99.90
2032.00,99.93
2031.00,99.95
2030.00,99.94
2029.00,99.93
2028.00,99.92
2027.00,99.90
2026.00,99.89
2025.00,99.88
2024.00,99.86
2023.00,99.85
2022.00,99.84
2021.00,99.84
2020.00,99.86
2019.00,99.89
2018.00,99.91
2017.00,99.92
2016.00,99.93
2015.00,99.93
2014.00,99.94
2013.00,99.91
2012.00,99.87
2011.00,99.85
2010.00,99.85
2009.00,99.88
2008.00,99.93
2007.00,99.98
2006.00,100.02
2005.00,100.02
2004.00,100.01
2003.00,99.98
2002.00,99.95
2001.00,99.94
2000.00,99.94
1999.00,99.96
1998.00,99.98
1997.00,99.99
1996.00,99.97
1995.00,99.94
1994.00,99.91
1993.00,99.91
1992.00,99.92
1991.00,99.93
1990.00,99.92
1989.00,99.89
1988.00,99.86
1987.00,99.86
1986.00,99.85
1985.00,99.83
1984.00,99.80
1983.00,99.77
1982.00,99.74
1981.00,99.72
1980.00,99.72
1979.00,99.75
1978.00,99.81
1977.00,99.87
1976.00,99.91
1975.00,99.94
1974.00,99.97
1973.00,100.00
1972.00,100.03
1971.00,100.05
1970.00,100.05
1969.00,100.03
1968.00,99.99
1967.00,99.96
1966.00,99.95
1965.00,99.96
1964.00,99.99
1963.00,100.01
1962.00,100.04
1961.00,100.07
1960.00,100.08
1959.00,100.09
1958.00,100.09
1957.00,100.05
1956.00,100.01
1955.00,99.98
1954.00,99.97
1953.00,99.96
1952.00,99.96
1951.00,99.96
1950.00,99.97
1949.00,99.99
1948.00,100.00
1947.00,100.00
1946.00,99.99
1945.00,99.99
1944.00,100.00
1943.00,99.99
1942.00,99.97
1941.00,99.94
1940.00,99.91
1939.00,99.90
1938.00,99.90
1937.00,99.90
1936.00,99.90
1935.00,99.90
1934.00,99.91
1933.00,99.91
1932.00,99.90
1931.00,99.89
1930.00,99.89
1929.00,99.89
1928.00,99.88
1927.00,99.87
1926.00,99.85
1925.00,99.85
1924.00,99.83
1923.00,99.82
1922.00,99.81
1921.00,99.80
1920.00,99.81
1919.00,99.82
1918.00,99.82
1917.00,99.82
1916.00,99.81
1915.00,99.81
1914.00,99.80
1913.00,99.80
1912.00,99.80
1911.00,99.81
1910.00,99.80
1909.00,99.79
1908.00,99.77
1907.00,99.76
1906.00,99.76
1905.00,99.76
1904.00,99.77
1903.00,99.78
1902.00,99.78
1901.00,99.78
1900.00,99.77
1899.00,99.77
1898.00,99.77
1897.00,99.77
1896.00,99.76
1895.00,99.76
1894.00,99.76
1893.00,99.76
1892.00,99.76
1891.00,99.76
1890.00,99.76
1889.00,99.77
1888.00,99.78
1887.00,99.78
1886.00,99.77
1885.00,99.75
1884.00,99.74
1883.00,99.73
1882.00,99.74
1881.00,99.75
1880.00,99.75
1879.00,99.75
1878.00,99.75
1877.00,99.74
1876.00,99.73
1875.00,99.74
1874.00,99.75
1873.00,99.75
1872.00,99.76
1871.00,99.76
1870.00,99.77
1869.00,99.76
1868.00,99.75
1867.00,99.74
1866.00,99.74
1865.00,99.74
1864.00,99.74
1863.00,99.74
1862.00,99.74
1861.00,99.73
1860.00,99.74
1859.00,99.75
1858.00,99.75
1857.00,99.75
1856.00,99.74
1855.00,99.72
1854.00,99.71
1853.00,99.69
1852.00,99.69
1851.00,99.70
1850.00,99.71
1849.00,99.72
1848.00,99.71
1847.00,99.70
1846.00,99.69
1845.00,99.70
1844.00,99.71
1843.00,99.71
1842.00,99.71
1841.00,99.69
1840.00,99.68
1839.00,99.68
1838.00,99.68
1837.00,99.68
1836.00,99.68
1835.00,99.67
1834.00,99.67
1833.00,99.65
1832.00,99.64
1831.00,99.64
1830.00,99.63
1829.00,99.64
1828.00,99.65
1827.00,99.67
1826.00,99.69
1825.00,99.69
1824.00,99.67
1823.00,99.66
1822.00,99.66
1821.00,99.66
1820.00,99.67
1819.00,99.68
1818.00,99.69
1817.00,99.69
1816.00,99.68
1815.00,99.66
1814.00,99.65
1813.00,99.64
1812.00,99.64
1811.00,99.64
1810.00,99.64
1809.00,99.65
1808.00,99.65
1807.00,99.64
1806.00,99.63
1805.00,99.62
1804.00,99.62
1803.00,99.62
1802.00,99.62
1801.00,99.61
1800.00,99.59
1799.00,99.57
1798.00,99.57
1797.00,99.56
1796.00,99.56
1795.00,99.56
1794.00,99.56
1793.00,99.56
1792.00,99.56
1791.00,99.55
1790.00,99.54
1789.00,99.53
1788.00,99.52
1787.00,99.51
1786.00,99.51
1785.00,99.50
1784.00,99.50
1783.00,99.50
1782.00,99.50
1781.00,99.50
1780.00,99.49
1779.00,99.49
1778.00,99.48
1777.00,99.48
1776.00,99.47
1775.00,99.46
1774.00,99.45
1773.00,99.44
1772.00,99.44
1771.00,99.44
1770.00,99.44
1769.00,99.44
1768.00,99.42
1767.00,99.40
1766.00,99.39
1765.00,99.38
1764.00,99.37
1763.00,99.37
1762.00,99.35
1761.00,99.34
1760.00,99.32
1759.00,99.31
1758.00,99.29
1757.00,99.26
1756.00,99.23
1755.00,99.20
1754.00,99.18
1753.00,99.16
1752.00,99.12
1751.00,99.07
1750.00,98.99
1749.00,98.91
1748.00,98.81
1747.00,98.72
1746.00,98.63
1745.00,98.53
1744.00,98.39
1743.00,98.22
1742.00,98.03
1741.00,97.84
1740.00,97.67
1739.00,97.56
1738.00,97.52
1737.00,97.52
1736.00,97.51
1735.00,97.41
1734.00,97.16
1733.00,96.83
1732.00,96.55
1731.00,96.42
1730.00,96.48
1729.00,96.72
1728.00,97.08
1727.00,97.43
1726.00,97.71
1725.00,97.90
1724.00,98.01
1723.00,98.06
1722.00,98.08
1721.00,98.08
1720.00,98.09
1719.00,98.08
1718.00,98.05
1717.00,98.03
1716.00,98.02
1715.00,98.03
1714.00,98.04
1713.00,98.05
1712.00,98.08
1711.00,98.11
1710.00,98.15
1709.00,98.18
1708.00,98.22
1707.00,98.26
1706.00,98.30
1705.00,98.34
1704.00,98.38
1703.00,98.43
1702.00,98.48
1701.00,98.53
1700.00,98.60
1699.00,98.66
1698.00,98.71
1697.00,98.75
1696.00,98.78
1695.00,98.81
1694.00,98.82
1693.00,98.83
1692.00,98.83
1691.00,98.84
1690.00,98.85
1689.00,98.86
1688.00,98.87
1687.00,98.89
1686.00,98.91
1685.00,98.92
1684.00,98.91
1683.00,98.91
1682.00,98.91
1681.00,98.90
1680.00,98.88
1679.00,98.87
1678.00,98.87
1677.00,98.87
1676.00,98.86
1675.00,98.85
1674.00,98.85
1673.00,98.84
1672.00,98.84
1671.00,98.84
1670.00,98.83
1669.00,98.83
1668.00,98.82
1667.00,98.82
1666.00,98.81
1665.00,98.80
1664.00,98.79
1663.00,98.79
1662.00,98.78
1661.00,98.78
1660.00,98.78
1659.00,98.77
1658.00,98.76
1657.00,98.76
1656.00,98.77
1655.00,98.78
1654.00,98.78
1653.00,98.77
1652.00,98.78
1651.00,98.78
1650.00,98.77
1649.00,98.77
1648.00,98.77
1647.00,98.76
1646.00,98.75
1645.00,98.76
1644.00,98.76
1643.00,98.76
1642.00,98.76
1641.00,98.76
1640.00,98.76
1639.00,98.76
1638.00,98.77
1637.00,98.78
1636.00,98.79
1635.00,98.81
1634.00,98.83
1633.00,98.84
1632.00,98.84
1631.00,98.85
1630.00,98.86
1629.00,98.87
1628.00,98.88
1627.00,98.90
1626.00,98.91
1625.00,98.92
1624.00,98.93
1623.00,98.95
1622.00,98.97
1621.00,98.98
1620.00,98.99
1619.00,99.01
1618.00,99.03
1617.00,99.05
1616.00,99.06
1615.00,99.08
1614.00,99.09
1613.00,99.09
1612.00,99.10
1611.00,99.11
1610.00,99.13
1609.00,99.14
1608.00,99.14
1607.00,99.15
1606.00,99.16
1605.00,99.17
1604.00,99.18
1603.00,99.19
1602.00,99.20
1601.00,99.20
1600.00,99.20
1599.00,99.21
1598.00,99.22
1597.00,99.23
1596.00,99.24
1595.00,99.26
1594.00,99.27
1593.00,99.28
1592.00,99.28
1591.00,99.29
1590.00,99.29
1589.00,99.30
1588.00,99.31
1587.00,99.32
1586.00,99.33
1585.00,99.35
1584.00,99.36
1583.00,99.39
1582.00,99.42
1581.00,99.45
1580.00,99.48
1579.00,99.52
1578.00,99.55
1577.00,99.58
1576.00,99.59
1575.00,99.59
1574.00,99.57
1573.00,99.54
1572.00,99.50
1571.00,99.47
1570.00,99.42
1569.00,99.37
1568.00,99.33
1567.00,99.31
1566.00,99.28
1565.00,99.26
1564.00,99.23
1563.00,99.22
1562.00,99.21
1561.00,99.20
1560.00,99.18
1559.00,99.16
1558.00,99.18
1557.00,99.20
1556.00,99.20
1555.00,99.19
1554.00,99.18
1553.00,99.17
1552.00,99.17
1551.00,99.18
1550.00,99.19
1549.00,99.20
1548.00,99.22
1547.00,99.25
1546.00,99.28
1545.00,99.32
1544.00,99.35
1543.00,99.40
1542.00,99.46
1541.00,99.50
1540.00,99.53
1539.00,99.54
1538.00,99.52
1537.00,99.48
1536.00,99.42
1535.00,99.36
1534.00,99.30
1533.00,99.23
1532.00,99.19
1531.00,99.16
1530.00,99.14
1529.00,99.11
1528.00,99.09
1527.00,99.07
1526.00,99.05
1525.00,99.03
1524.00,99.02
1523.00,99.02
1522.00,99.01
1521.00,99.00
1520.00,98.98
1519.00,98.97
1518.00,98.96
1517.00,98.95
1516.00,98.92
1515.00,98.91
1514.00,98.90
1513.00,98.88
1512.00,98.86
1511.00,98.85
1510.00,98.84
1509.00,98.82
1508.00,98.78
1507.00,98.74
1506.00,98.73
1505.00,98.72
1504.00,98.69
1503.00,98.66
1502.00,98.64
1501.00,98.60
1500.00,98.57
1499.00,98.54
1498.00,98.52
1497.00,98.47
1496.00,98.42
1495.00,98.38
1494.00,98.35
1493.00,98.31
1492.00,98.25
1491.00,98.20
1490.00,98.12
1489.00,98.03
1488.00,97.92
1487.00,97.83
1486.00,97.73
1485.00,97.60
1484.00,97.47
1483.00,97.32
1482.00,97.14
1481.00,96.92
1480.00,96.67
1479.00,96.40
1478.00,96.08
1477.00,95.63
1476.00,95.07
1475.00,94.39
1474.00,93.52
1473.00,92.38
1472.00,91.12
1471.00,90.01
1470.00,89.06
1469.00,88.12
1468.00,87.11
1467.00,85.97
1466.00,84.63
1465.00,83.12
1464.00,81.71
1463.00,80.67
1462.00,79.99
1461.00,79.52
1460.00,79.19
1459.00,78.93
1458.00,78.65
1457.00,78.32
1456.00,78.12
1455.00,78.14
1454.00,78.28
1453.00,78.53
1452.00,78.92
1451.00,79.50
1450.00,80.34
1449.00,81.52
1448.00,83.06
1447.00,84.75
1446.00,86.34
1445.00,87.73
1444.00,88.92
1443.00,89.92
1442.00,90.68
1441.00,91.22
1440.00,91.57
1439.00,91.74
1438.00,91.74
1437.00,91.69
1436.00,91.79
1435.00,92.17
1434.00,92.79
1433.00,93.56
1432.00,94.38
1431.00,95.10
1430.00,95.66
1429.00,96.06
1428.00,96.33
1427.00,96.50
1426.00,96.60
1425.00,96.70
1424.00,96.79
1423.00,96.87
1422.00,96.92
1421.00,96.98
1420.00,97.05
1419.00,97.10
1418.00,97.14
1417.00,97.20
1416.00,97.28
1415.00,97.34
1414.00,97.38
1413.00,97.42
1412.00,97.45
1411.00,97.47
1410.00,97.46
1409.00,97.46
1408.00,97.46
1407.00,97.45
1406.00,97.42
1405.00,97.39
1404.00,97.35
1403.00,97.30
1402.00,97.24
1401.00,97.17
1400.00,97.10
1399.00,97.00
1398.00,96.89
1397.00,96.80
1396.00,96.71
1395.00,96.62
1394.00,96.52
1393.00,96.45
1392.00,96.39
1391.00,96.31
1390.00,96.19
1389.00,95.99
1388.00,95.66
1387.00,95.12
1386.00,94.34
1385.00,93.32
1384.00,91.92
1383.00,89.98
1382.00,87.39
1381.00,84.12
1380.00,80.22
1379.00,75.95
1378.00,71.96
1377.00,69.02
1376.00,67.83
1375.00,68.79
1374.00,71.77
1373.00,75.85
1372.00,79.99
1371.00,83.64
1370.00,86.66
1369.00,89.02
1368.00,90.69
1367.00,91.76
1366.00,92.37
1365.00,92.64
1364.00,92.63
1363.00,92.39
1362.00,91.99
1361.00,91.55
1360.00,91.22
1359.00,91.11
1358.00,91.29
1357.00,91.75
1356.00,92.42
1355.00,93.18
1354.00,93.92
1353.00,94.57
1352.00,95.09
1351.00,95.50
1350.00,95.83
1349.00,96.09
1348.00,96.32
1347.00,96.51
1346.00,96.68
1345.00,96.83
1344.00,96.96
1343.00,97.06
1342.00,97.16
1341.00,97.23
1340.00,97.29
1339.00,97.31
1338.00,97.31
1337.00,97.28
1336.00,97.21
1335.00,97.11
1334.00,96.99
1333.00,96.86
1332.00,96.73
1331.00,96.64
1330.00,96.61
1329.00,96.64
1328.00,96.73
1327.00,96.86
1326.00,97.00
1325.00,97.13
1324.00,97.25
1323.00,97.34
1322.00,97.41
1321.00,97.46
1320.00,97.49
1319.00,97.51
1318.00,97.51
1317.00,97.51
1316.00,97.49
1315.00,97.46
1314.00,97.42
1313.00,97.37
1312.00,97.31
1311.00,97.24
1310.00,97.16
1309.00,97.06
1308.00,96.92
1307.00,96.75
1306.00,96.58
1305.00,96.45
1304.00,96.41
1303.00,96.46
1302.00,96.56
1301.00,96.66
1300.00,96.73
1299.00,96.75
1298.00,96.74
1297.00,96.73
1296.00,96.71
1295.00,96.72
1294.00,96.75
1293.00,96.81
1292.00,96.87
1291.00,96.93
1290.00,96.98
1289.00,97.03
1288.00,97.09
1287.00,97.17
1286.00,97.27
1285.00,97.38
1284.00,97.49
1283.00,97.58
1282.00,97.65
1281.00,97.69
1280.00,97.70
1279.00,97.70
1278.00,97.67
1277.00,97.63
1276.00,97.59
1275.00,97.56
1274.00,97.55
1273.00,97.55
1272.00,97.55
1271.00,97.53
1270.00,97.46
1269.00,97.36
1268.00,97.25
1267.00,97.16
1266.00,97.11
1265.00,97.13
1264.00,97.18
1263.00,97.22
1262.00,97.23
1261.00,97.17
1260.00,97.04
1259.00,96.86
1258.00,96.65
1257.00,96.46
1256.00,96.37
1255.00,96.41
1254.00,96.58
1253.00,96.81
1252.00,97.04
1251.00,97.22
1250.00,97.32
1249.00,97.37
1248.00,97.36
1247.00,97.33
1246.00,97.28
1245.00,97.25
1244.00,97.26
1243.00,97.32
1242.00,97.41
1241.00,97.51
1240.00,97.57
1239.00,97.60
1238.00,97.59
1237.00,97.57
1236.00,97.58
1235.00,97.61
1234.00,97.66
1233.00,97.72
1232.00,97.75
1231.00,97.76
1230.00,97.72
1229.00,97.66
1228.00,97.56
1227.00,97.43
1226.00,97.25
1225.00,97.04
1224.00,96.81
1223.00,96.59
1222.00,96.43
1221.00,96.36
1220.00,96.39
1219.00,96.49
1218.00,96.61
1217.00,96.72
1216.00,96.82
1215.00,96.94
1214.00,97.09
1213.00,97.25
1212.00,97.39
1211.00,97.49
1210.00,97.53
1209.00,97.51
1208.00,97.41
1207.00,97.26
1206.00,97.06
1205.00,96.83
1204.00,96.61
1203.00,96.41
1202.00,96.26
1201.00,96.16
1200.00,96.11
1199.00,96.12
1198.00,96.18
1197.00,96.31
1196.00,96.49
1195.00,96.70
1194.00,96.90
1193.00,97.06
1192.00,97.17
1191.00,97.18
1190.00,97.09
1189.00,96.88
1188.00,96.59
1187.00,96.25
1186.00,95.94
1185.00,95.67
1184.00,95.47
1183.00,95.34
1182.00,95.31
1181.00,95.37
1180.00,95.51
1179.00,95.68
1178.00,95.83
1177.00,95.91
1176.00,95.88
1175.00,95.75
1174.00,95.48
1173.00,95.07
1172.00,94.54
1171.00,93.93
1170.00,93.33
1169.00,92.83
1168.00,92.52
1167.00,92.45
1166.00,92.59
1165.00,92.90
1164.00,93.28
1163.00,93.68
1162.00,94.05
1161.00,94.37
1160.00,94.64
1159.00,94.86
1158.00,95.03
1157.00,95.15
1156.00,95.24
1155.00,95.32
1154.00,95.39
1153.00,95.48
1152.00,95.59
1151.00,95.74
1150.00,95.91
1149.00,96.11
1148.00,96.31
1147.00,96.51
1146.00,96.69
1145.00,96.86
1144.00,97.01
1143.00,97.15
1142.00,97.28
1141.00,97.39
1140.00,97.50
1139.00,97.59
1138.00,97.68
1137.00,97.75
1136.00,97.81
1135.00,97.85
1134.00,97.90
1133.00,97.94
1132.00,97.96
1131.00,97.98
1130.00,97.99
1129.00,97.99
1128.00,97.99
1127.00,97.99
1126.00,97.98
1125.00,97.97
1124.00,97.95
1123.00,97.94
1122.00,97.92
1121.00,97.91
1120.00,97.90
1119.00,97.90
1118.00,97.90
1117.00,97.90
1116.00,97.89
1115.00,97.88
1114.00,97.85
1113.00,97.80
1112.00,97.74
1111.00,97.66
1110.00,97.57
1109.00,97.46
1108.00,97.34
1107.00,97.20
1106.00,97.05
1105.00,96.92
1104.00,96.80
1103.00,96.73
1102.00,96.71
1101.00,96.76
1100.00,96.85
1099.00,96.97
1098.00,97.12
1097.00,97.27
1096.00,97.41
1095.00,97.53
1094.00,97.64
1093.00,97.74
1092.00,97.83
1091.00,97.91
1090.00,97.98
1089.00,98.03
1088.00,98.06
1087.00,98.09
1086.00,98.10
1085.00,98.11
1084.00,98.11
1083.00,98.12
1082.00,98.13
1081.00,98.13
1080.00,98.13
1079.00,98.13
1078.00,98.12
1077.00,98.11
1076.00,98.11
1075.00,98.10
1074.00,98.09
1073.00,98.09
1072.00,98.09
1071.00,98.09
1070.00,98.09
1069.00,98.09
1068.00,98.07
1067.00,98.05
1066.00,98.01
1065.00,97.96
1064.00,97.91
1063.00,97.87
1062.00,97.86
1061.00,97.87
1060.00,97.89
1059.00,97.91
1058.00,97.92
1057.00,97.92
1056.00,97.91
1055.00,97.90
1054.00,97.87
1053.00,97.83
1052.00,97.76
1051.00,97.66
1050.00,97.53
1049.00,97.41
1048.00,97.32
1047.00,97.27
1046.00,97.28
1045.00,97.33
1044.00,97.43
1043.00,97.53
1042.00,97.64
1041.00,97.73
1040.00,97.80
1039.00,97.84
1038.00,97.87
1037.00,97.89
1036.00,97.91
1035.00,97.92
1034.00,97.93
1033.00,97.94
1032.00,97.95
1031.00,97.96
1030.00,97.96
1029.00,97.96
1028.00,97.97
1027.00,97.97
1026.00,97.98
1025.00,97.99
1024.00,97.99
1023.00,98.00
1022.00,98.00
1021.00,97.99
1020.00,97.98
1019.00,97.96
1018.00,97.92
1017.00,97.89
1016.00,97.85
1015.00,97.81
1014.00,97.77
1013.00,97.72
1012.00,97.67
1011.00,97.61
1010.00,97.54
1009.00,97.45
1008.00,97.35
1007.00,97.21
1006.00,97.04
1005.00,96.79
1004.00,96.43
1003.00,95.95
1002.00,95.30
1001.00,94.51
1000.00,93.67
999.00,92.94
998.00,92.52
997.00,92.55
996.00,93.00
995.00,93.73
994.00,94.54
993.00,95.27
992.00,95.86
991.00,96.31
990.00,96.63
989.00,96.85
988.00,96.98
987.00,97.04
986.00,97.04
985.00,96.97
984.00,96.85
983.00,96.65
982.00,96.37
981.00,96.00
980.00,95.53
979.00,94.95
978.00,94.25
977.00,93.44
976.00,92.56
975.00,91.72
974.00,91.09
973.00,90.86
972.00,91.13
971.00,91.88
970.00,92.91
969.00,93.99
968.00,94.93
967.00,95.67
966.00,96.23
965.00,96.64
964.00,96.95
963.00,97.19
962.00,97.37
961.00,97.51
960.00,97.62
959.00,97.71
958.00,97.77
957.00,97.83
956.00,97.88
955.00,97.92
954.00,97.94
953.00,97.96
952.00,97.97
951.00,97.97
950.00,97.96
949.00,97.94
948.00,97.90
947.00,97.85
946.00,97.80
945.00,97.74
944.00,97.68
943.00,97.64
942.00,97.62
941.00,97.62
940.00,97.67
939.00,97.74
938.00,97.85
937.00,97.97
936.00,98.09
935.00,98.19
934.00,98.27
933.00,98.32
932.00,98.36
931.00,98.38
930.00,98.41
929.00,98.43
928.00,98.45
927.00,98.46
926.00,98.47
925.00,98.48
924.00,98.48
923.00,98.47
922.00,98.46
921.00,98.45
920.00,98.45
919.00,98.44
918.00,98.43
917.00,98.42
916.00,98.41
915.00,98.40
914.00,98.39
913.00,98.38
912.00,98.37
911.00,98.35
910.00,98.32
909.00,98.28
908.00,98.23
907.00,98.15
906.00,98.02
905.00,97.82
904.00,97.53
903.00,97.17
902.00,96.78
901.00,96.43
900.00,96.19
899.00,96.12
898.00,96.24
897.00,96.51
896.00,96.86
895.00,97.21
894.00,97.51
893.00,97.74
892.00,97.91
891.00,98.03
890.00,98.12
889.00,98.18
888.00,98.23
887.00,98.26
886.00,98.28
885.00,98.30
884.00,98.31
883.00,98.32
882.00,98.31
881.00,98.31
880.00,98.30
879.00,98.29
878.00,98.28
877.00,98.27
876.00,98.25
875.00,98.24
874.00,98.24
873.00,98.24
872.00,98.26
871.00,98.26
870.00,98.26
869.00,98.25
868.00,98.25
867.00,98.24
866.00,98.24
865.00,98.22
864.00,98.19
863.00,98.16
862.00,98.12
861.00,98.08
860.00,98.03
859.00,97.99
858.00,97.96
857.00,97.93
856.00,97.90
855.00,97.86
854.00,97.82
853.00,97.77
852.00,97.70
851.00,97.61
850.00,97.49
849.00,97.34
848.00,97.14
847.00,96.85
846.00,96.41
845.00,95.73
844.00,94.81
843.00,93.79
842.00,93.00
841.00,92.77
840.00,93.21
839.00,94.12
838.00,95.13
837.00,95.95
836.00,96.51
835.00,96.87
834.00,97.10
833.00,97.27
832.00,97.39
831.00,97.48
830.00,97.55
829.00,97.60
828.00,97.65
827.00,97.69
826.00,97.72
825.00,97.74
824.00,97.74
823.00,97.74
822.00,97.72
821.00,97.69
820.00,97.65
819.00,97.60
818.00,97.51
817.00,97.40
816.00,97.24
815.00,97.03
814.00,96.76
813.00,96.44
812.00,96.10
811.00,95.81
810.00,95.60
809.00,95.53
808.00,95.60
807.00,95.78
806.00,96.04
805.00,96.34
804.00,96.65
803.00,96.92
802.00,97.15
801.00,97.32
800.00,97.44
799.00,97.53
798.00,97.61
797.00,97.69
796.00,97.79
795.00,97.87
794.00,97.95
793.00,98.02
792.00,98.08
791.00,98.13
790.00,98.19
789.00,98.24
788.00,98.29
787.00,98.34
786.00,98.39
785.00,98.43
784.00,98.46
783.00,98.48
782.00,98.50
781.00,98.52
780.00,98.54
779.00,98.56
778.00,98.58
777.00,98.60
776.00,98.62
775.00,98.65
774.00,98.66
773.00,98.66
772.00,98.65
771.00,98.64
770.00,98.64
769.00,98.64
768.00,98.65
767.00,98.67
766.00,98.68
765.00,98.69
764.00,98.69
763.00,98.68
762.00,98.67
761.00,98.67
760.00,98.68
759.00,98.68
758.00,98.69
757.00,98.69
756.00,98.68
755.00,98.68
754.00,98.67
753.00,98.66
752.00,98.64
751.00,98.63
750.00,98.63
749.00,98.62
748.00,98.62
747.00,98.60
746.00,98.57
745.00,98.53
744.00,98.49
743.00,98.45
742.00,98.40
741.00,98.35
740.00,98.29
739.00,98.23
738.00,98.16
737.00,98.10
736.00,98.04
735.00,97.97
734.00,97.91
733.00,97.87
732.00,97.86
731.00,97.88
730.00,97.93
729.00,97.99
728.00,98.05
727.00,98.11
726.00,98.15
725.00,98.17
724.00,98.16
723.00,98.12
722.00,98.08
721.00,98.05
720.00,98.03
719.00,98.01
718.00,98.01
717.00,98.04
716.00,98.11
715.00,98.21
714.00,98.33
713.00,98.44
712.00,98.51
711.00,98.55
710.00,98.57
709.00,98.57
708.00,98.57
707.00,98.57
706.00,98.58
705.00,98.59
704.00,98.60
703.00,98.60
702.00,98.60
701.00,98.61
700.00,98.62
699.00,98.63
698.00,98.65
697.00,98.67
696.00,98.69
695.00,98.69
694.00,98.69
693.00,98.68
692.00,98.66
691.00,98.66
690.00,98.67
689.00,98.69
688.00,98.71
687.00,98.71
686.00,98.69
685.00,98.67
684.00,98.66
683.00,98.66
682.00,98.66
681.00,98.65
680.00,98.63
679.00,98.62
678.00,98.61
677.00,98.61
676.00,98.61
675.00,98.60
674.00,98.61
673.00,98.62
672.00,98.66
671.00,98.71
670.00,98.78
669.00,98.89
668.00,98.98
667.00,98.95
666.00,98.85
665.00,98.75
664.00,98.70
663.00,98.66
662.00,98.64
661.00,98.63
660.00,98.63
659.00,98.64
658.00,98.65
657.00,98.66
656.00,98.66
655.00,98.66
654.00,98.65
653.00,98.64
652.00,98.63
651.00,98.64
650.00,98.64
649.00,98.64
648.00,98.65
647.00,98.65
646.00,98.65
645.00,98.65
644.00,98.64
643.00,98.64
642.00,98.64
641.00,98.65
640.00,98.66
639.00,98.65
638.00,98.65
637.00,98.65
636.00,98.66
635.00,98.66
634.00,98.64
633.00,98.62
632.00,98.60
631.00,98.61
630.00,98.62
629.00,98.64
628.00,98.66
627.00,98.65
626.00,98.64
625.00,98.64
624.00,98.64
623.00,98.65
622.00,98.66
621.00,98.64
620.00,98.63
619.00,98.62
618.00,98.61
617.00,98.62
616.00,98.63
615.00,98.63
614.00,98.64
613.00,98.66
612.00,98.67
611.00,98.68
610.00,98.66
609.00,98.64
608.00,98.62
607.00,98.61
606.00,98.60
605.00,98.61
604.00,98.62
603.00,98.62
602.00,98.62
601.00,98.59
600.00,98.55
599.00,98.52
598.00,98.51
597.00,98.51
596.00,98.51
595.00,98.52
594.00,98.53
593.00,98.54
592.00,98.57
591.00,98.58
590.00,98.58
589.00,98.55
588.00,98.52
587.00,98.49
586.00,98.47
585.00,98.45
584.00,98.43
583.00,98.42
582.00,98.40
581.00,98.39
580.00,98.39
579.00,98.39
578.00,98.38
577.00,98.37
576.00,98.36
575.00,98.35
574.00,98.35
573.00,98.36
572.00,98.38
571.00,98.41
570.00,98.44
569.00,98.46
568.00,98.46
567.00,98.45
566.00,98.43
565.00,98.42
564.00,98.43
563.00,98.43
562.00,98.43
561.00,98.42
560.00,98.41
559.00,98.39
558.00,98.36
557.00,98.34
556.00,98.34
555.00,98.35
554.00,98.36
553.00,98.36
552.00,98.36
551.00,98.37
550.00,98.38
549.00,98.38
548.00,98.38
547.00,98.36
546.00,98.35
545.00,98.34
544.00,98.34
543.00,98.34
542.00,98.34
541.00,98.34
540.00,98.33
539.00,98.32
538.00,98.30
537.00,98.28
536.00,98.25
535.00,98.23
534.00,98.22
533.00,98.21
532.00,98.22
531.00,98.23
530.00,98.23
529.00,98.22
528.00,98.20
527.00,98.19
526.00,98.18
525.00,98.19
524.00,98.20
523.00,98.21
522.00,98.23
521.00,98.25
520.00,98.28
519.00,98.30
518.00,98.32
517.00,98.33
516.00,98.36
515.00,98.39
514.00,98.42
513.00,98.43
512.00,98.44
511.00,98.46
510.00,98.48
509.00,98.51
508.00,98.54
507.00,98.57
506.00,98.60
505.00,98.63
504.00,98.66
503.00,98.68
502.00,98.69
501.00,98.67
500.00,98.62
499.00,98.57
498.00,98.53
497.00,98.50
496.00,98.49
495.00,98.49
494.00,98.52
493.00,98.55
492.00,98.57
491.00,98.57
490.00,98.55
489.00,98.54
488.00,98.54
487.00,98.52
486.00,98.48
485.00,98.44
484.00,98.42
483.00,98.42
482.00,98.43
481.00,98.44
480.00,98.46
479.00,98.45
478.00,98.41
477.00,98.33
476.00,98.23
475.00,98.13
474.00,98.05
473.00,98.01
472.00,98.01
471.00,98.04
470.00,98.06
469.00,98.06
468.00,98.02
467.00,97.95
466.00,97.87
465.00,97.76
464.00,97.57
463.00,97.31
462.00,96.99
461.00,96.70
460.00,96.54
459.00,96.54
458.00,96.68
457.00,96.85
456.00,96.97
455.00,97.08
454.00,97.22
453.00,97.40
452.00,97.58
451.00,97.72
450.00,97.81
449.00,97.88
448.00,97.97
447.00,98.09
446.00,98.20
445.00,98.29
444.00,98.34
443.00,98.35
442.00,98.34
441.00,98.32
440.00,98.33
439.00,98.38
438.00,98.44
437.00,98.49
436.00,98.50
435.00,98.48
434.00,98.45
433.00,98.40
432.00,98.36
431.00,98.30
430.00,98.24
429.00,98.21
428.00,98.23
427.00,98.27
426.00,98.28
425.00,98.23
424.00,98.17
423.00,98.17
422.00,98.24
421.00,98.30
420.00,98.33
419.00,98.32
418.00,98.29
417.00,98.21
416.00,98.08
415.00,97.95
414.00,97.89
413.00,97.92
412.00,98.04
411.00,98.24
410.00,98.49
409.00,98.70
408.00,98.76
407.00,98.64
406.00,98.44
405.00,98.28
404.00,98.25
403.00,98.30
402.00,98.32
401.00,98.16
400.00,97.82
