Created as New Dataset,Sample 713 By Administrator Date Monday, September 21 2026
cm-1,%T
4000.00,99.54
3999.00,99.54
3998.00,99.54
3997.00,99.54
3996.00,99.54
3995.00,99.54
3994.00,99.53
3993.00,99.53
3992.00,99.53
3991.00,99.54
3990.00,99.55
3989.00,99.55
3988.00,99.56
3987.00,99.56
3986.00,99.56
3985.00,99.55
3984.00,99.54
3983.00,99.53
3982.00,99.52
3981.00,99.52
3980.00,99.52
3979.00,99.52
3978.00,99.52
3977.00,99.53
3976.00,99.53
3975.00,99.53
3974.00,99.53
3973.00,99.54
3972.00,99.54
3971.00,99.54
3970.00,99.54
3969.00,99.54
3968.00,99.54
3967.00,99.53
3966.00,99.53
3965.00,99.52
3964.00,99.52
3963.00,99.52
3962.00,99.53
3961.00,99.54
3960.00,99.54
3959.00,99.54
3958.00,99.54
3957.00,99.54
3956.00,99.54
3955.00,99.54
3954.00,99.54
3953.00,99.54
3952.00,99.54
3951.00,99.54
3950.00,99.54
3949.00,99.54
3948.00,99.54
3947.00,99.54
3946.00,99.54
3945.00,99.54
3944.00,99.54
3943.00,99.54
3942.00,99.54
3941.00,99.55
3940.00,99.55
3939.00,99.55
3938.00,99.54
3937.00,99.53
3936.00,99.53
3935.00,99.53
3934.00,99.52
3933.00,99.52
3932.00,99.52
3931.00,99.51
3930.00,99.51
3929.00,99.51
3928.00,99.52
3927.00,99.52
3926.00,99.53
3925.00,99.53
3924.00,99.53
3923.00,99.53
3922.00,99.53
3921.00,99.53
3920.00,99.52
3919.00,99.52
3918.00,99.51
3917.00,99.51
3916.00,99.51
3915.00,99.52
3914.00,99.52
3913.00,99.52
3912.00,99.52
3911.00,99.52
3910.00,99.52
3909.00,99.52
3908.00,99.52
3907.00,99.52
3906.00,99.52
3905.00,99.52
3904.00,99.52
3903.00,99.53
3902.00,99.54
3901.00,99.55
3900.00,99.55
3899.00,99.55
3898.00,99.54
3897.00,99.54
3896.00,99.54
3895.00,99.54
3894.00,99.55
3893.00,99.54
3892.00,99.54
3891.00,99.54
3890.00,99.53
3889.00,99.53
3888.00,99.53
3887.00,99.53
3886.00,99.52
3885.00,99.52
3884.00,99.52
3883.00,99.52
3882.00,99.52
3881.00,99.52
3880.00,99.52
3879.00,99.52
3878.00,99.52
3877.00,99.52
3876.00,99.53
3875.00,99.52
3874.00,99.52
3873.00,99.52
3872.00,99.52
3871.00,99.52
3870.00,99.52
3869.00,99.53
3868.00,99.53
3867.00,99.53
3866.00,99.52
3865.00,99.52
3864.00,99.53
3863.00,99.53
3862.00,99.53
3861.00,99.53
3860.00,99.53
3859.00,99.54
3858.00,99.54
3857.00,99.56
3856.00,99.57
3855.00,99.58
3854.00,99.58
3853.00,99.58
3852.00,99.58
3851.00,99.58
3850.00,99.58
3849.00,99.56
3848.00,99.55
3847.00,99.54
3846.00,99.53
3845.00,99.53
3844.00,99.52
3843.00,99.53
3842.00,99.53
3841.00,99.54
3840.00,99.54
3839.00,99.55
3838.00,99.55
3837.00,99.56
3836.00,99.56
3835.00,99.56
3834.00,99.56
3833.00,99.56
3832.00,99.56
3831.00,99.56
3830.00,99.57
3829.00,99.57
3828.00,99.57
3827.00,99.56
3826.00,99.56
3825.00,99.55
3824.00,99.55
3823.00,99.54
3822.00,99.53
3821.00,99.53
3820.00,99.53
3819.00,99.55
3818.00,99.56
3817.00,99.56
3816.00,99.56
3815.00,99.57
3814.00,99.57
3813.00,99.57
3812.00,99.56
3811.00,99.55
3810.00,99.55
3809.00,99.55
3808.00,99.54
3807.00,99.55
3806.00,99.55
3805.00,99.56
3804.00,99.57
3803.00,99.57
3802.00,99.57
3801.00,99.57
3800.00,99.57
3799.00,99.57
3798.00,99.57
3797.00,99.58
3796.00,99.58
3795.00,99.58
3794.00,99.57
3793.00,99.56
3792.00,99.56
3791.00,99.56
3790.00,99.56
3789.00,99.56
3788.00,99.56
3787.00,99.56
3786.00,99.56
3785.00,99.56
3784.00,99.56
3783.00,99.56
3782.00,99.56
3781.00,99.56
3780.00,99.57
3779.00,99.57
3778.00,99.58
3777.00,99.58
3776.00,99.57
3775.00,99.57
3774.00,99.57
3773.00,99.56
3772.00,99.56
3771.00,99.55
3770.00,99.55
3769.00,99.55
3768.00,99.55
3767.00,99.55
3766.00,99.55
3765.00,99.55
3764.00,99.56
3763.00,99.56
3762.00,99.57
3761.00,99.57
3760.00,99.56
3759.00,99.56
3758.00,99.56
3757.00,99.56
3756.00,99.57
3755.00,99.58
3754.00,99.59
3753.00,99.59
3752.00,99.59
3751.00,99.57
3750.00,99.56
3749.00,99.55
3748.00,99.55
3747.00,99.56
3746.00,99.57
3745.00,99.58
3744.00,99.58
3743.00,99.58
3742.00,99.57
3741.00,99.56
3740.00,99.55
3739.00,99.55
3738.00,99.54
3737.00,99.53
3736.00,99.53
3735.00,99.54
3734.00,99.56
3733.00,99.58
3732.00,99.60
3731.00,99.60
3730.00,99.60
3729.00,99.59
3728.00,99.58
3727.00,99.56
3726.00,99.56
3725.00,99.55
3724.00,99.54
3723.00,99.55
3722.00,99.55
3721.00,99.55
3720.00,99.56
3719.00,99.56
3718.00,99.57
3717.00,99.57
3716.00,99.57
3715.00,99.57
3714.00,99.57
3713.00,99.56
3712.00,99.55
3711.00,99.54
3710.00,99.55
3709.00,99.56
3708.00,99.56
3707.00,99.56
3706.00,99.56
3705.00,99.56
3704.00,99.56
3703.00,99.56
3702.00,99.56
3701.00,99.55
3700.00,99.54
3699.00,99.53
3698.00,99.52
3697.00,99.51
3696.00,99.51
3695.00,99.51
3694.00,99.52
3693.00,99.52
3692.00,99.53
3691.00,99.54
3690.00,99.54
3689.00,99.54
3688.00,99.53
3687.00,99.53
3686.00,99.52
3685.00,99.52
3684.00,99.51
3683.00,99.50
3682.00,99.49
3681.00,99.49
3680.00,99.48
3679.00,99.48
3678.00,99.48
3677.00,99.49
3676.00,99.49
3675.00,99.49
3674.00,99.50
3673.00,99.50
3672.00,99.50
3671.00,99.50
3670.00,99.50
3669.00,99.50
3668.00,99.49
3667.00,99.49
3666.00,99.48
3665.00,99.47
3664.00,99.46
3663.00,99.45
3662.00,99.45
3661.00,99.44
3660.00,99.43
3659.00,99.42
3658.00,99.42
3657.00,99.41
3656.00,99.41
3655.00,99.40
3654.00,99.40
3653.00,99.40
3652.00,99.39
3651.00,99.38
3650.00,99.37
3649.00,99.36
3648.00,99.36
3647.00,99.36
3646.00,99.35
3645.00,99.35
3644.00,99.34
3643.00,99.34
3642.00,99.34
3641.00,99.34
3640.00,99.33
3639.00,99.32
3638.00,99.31
3637.00,99.30
3636.00,99.28
3635.00,99.28
3634.00,99.27
3633.00,99.27
3632.00,99.28
3631.00,99.28
3630.00,99.27
3629.00,99.25
3628.00,99.23
3627.00,99.22
3626.00,99.22
3625.00,99.22
3624.00,99.22
3623.00,99.22
3622.00,99.21
3621.00,99.21
3620.00,99.19
3619.00,99.18
3618.00,99.16
3617.00,99.15
3616.00,99.13
3615.00,99.11
3614.00,99.08
3613.00,99.06
3612.00,99.04
3611.00,99.02
3610.00,99.01
3609.00,99.00
3608.00,98.98
3607.00,98.97
3606.00,98.97
3605.00,98.96
3604.00,98.96
3603.00,98.95
3602.00,98.94
3601.00,98.93
3600.00,98.92
3599.00,98.92
3598.00,98.93
3597.00,98.93
3596.00,98.93
3595.00,98.92
3594.00,98.92
3593.00,98.91
3592.00,98.91
3591.00,98.91
3590.00,98.92
3589.00,98.92
3588.00,98.91
3587.00,98.90
3586.00,98.89
3585.00,98.88
3584.00,98.86
3583.00,98.85
3582.00,98.84
3581.00,98.84
3580.00,98.84
3579.00,98.84
3578.00,98.83
3577.00,98.83
3576.00,98.82
3575.00,98.81
3574.00,98.81
3573.00,98.80
3572.00,98.79
3571.00,98.78
3570.00,98.77
3569.00,98.76
3568.00,98.75
3567.00,98.74
3566.00,98.73
3565.00,98.72
3564.00,98.71
3563.00,98.70
3562.00,98.69
3561.00,98.68
3560.00,98.68
3559.00,98.68
3558.00,98.67
3557.00,98.66
3556.00,98.65
3555.00,98.64
3554.00,98.63
3553.00,98.61
3552.00,98.61
3551.00,98.60
3550.00,98.59
3549.00,98.58
3548.00,98.57
3547.00,98.55
3546.00,98.53
3545.00,98.52
3544.00,98.52
3543.00,98.52
3542.00,98.51
3541.00,98.50
3540.00,98.50
3539.00,98.49
3538.00,98.48
3537.00,98.47
3536.00,98.46
3535.00,98.45
3534.00,98.43
3533.00,98.42
3532.00,98.41
3531.00,98.39
3530.00,98.37
3529.00,98.35
3528.00,98.33
3527.00,98.32
3526.00,98.31
3525.00,98.30
3524.00,98.30
3523.00,98.30
3522.00,98.30
3521.00,98.29
3520.00,98.29
3519.00,98.28
3518.00,98.27
3517.00,98.25
3516.00,98.24
3515.00,98.23
3514.00,98.22
3513.00,98.22
3512.00,98.20
3511.00,98.19
3510.00,98.17
3509.00,98.16
3508.00,98.15
3507.00,98.15
3506.00,98.14
3505.00,98.13
3504.00,98.12
3503.00,98.10
3502.00,98.08
3501.00,98.07
3500.00,98.06
3499.00,98.06
3498.00,98.05
3497.00,98.04
3496.00,98.03
3495.00,98.02
3494.00,98.01
3493.00,97.99
3492.00,97.98
3491.00,97.97
3490.00,97.96
3489.00,97.95
3488.00,97.94
3487.00,97.93
3486.00,97.92
3485.00,97.91
3484.00,97.91
3483.00,97.90
3482.00,97.90
3481.00,97.89
3480.00,97.89
3479.00,97.87
3478.00,97.86
3477.00,97.85
3476.00,97.84
3475.00,97.84
3474.00,97.83
3473.00,97.81
3472.00,97.80
3471.00,97.79
3470.00,97.77
3469.00,97.76
3468.00,97.75
3467.00,97.74
3466.00,97.73
3465.00,97.72
3464.00,97.71
3463.00,97.70
3462.00,97.69
3461.00,97.68
3460.00,97.67
3459.00,97.65
3458.00,97.64
3457.00,97.62
3456.00,97.61
3455.00,97.60
3454.00,97.59
3453.00,97.58
3452.00,97.58
3451.00,97.57
3450.00,97.57
3449.00,97.56
3448.00,97.54
3447.00,97.53
3446.00,97.51
3445.00,97.50
3444.00,97.50
3443.00,97.49
3442.00,97.48
3441.00,97.47
3440.00,97.46
3439.00,97.45
3438.00,97.44
3437.00,97.43
3436.00,97.43
3435.00,97.42
3434.00,97.42
3433.00,97.42
3432.00,97.41
3431.00,97.41
3430.00,97.40
3429.00,97.39
3428.00,97.38
3427.00,97.37
3426.00,97.35
3425.00,97.34
3424.00,97.32
3423.00,97.31
3422.00,97.30
3421.00,97.29
3420.00,97.28
3419.00,97.28
3418.00,97.27
3417.00,97.27
3416.00,97.27
3415.00,97.27
3414.00,97.27
3413.00,97.26
3412.00,97.26
3411.00,97.26
3410.00,97.25
3409.00,97.24
3408.00,97.23
3407.00,97.22
3406.00,97.21
3405.00,97.21
3404.00,97.20
3403.00,97.20
3402.00,97.20
3401.00,97.20
3400.00,97.20
3399.00,97.19
3398.00,97.19
3397.00,97.19
3396.00,97.18
3395.00,97.18
3394.00,97.18
3393.00,97.18
3392.00,97.18
3391.00,97.18
3390.00,97.18
3389.00,97.18
3388.00,97.18
3387.00,97.18
3386.00,97.19
3385.00,97.19
3384.00,97.19
3383.00,97.19
3382.00,97.20
3381.00,97.20
3380.00,97.20
3379.00,97.20
3378.00,97.20
3377.00,97.20
3376.00,97.20
3375.00,97.20
3374.00,97.20
3373.00,97.20
3372.00,97.20
3371.00,97.20
3370.00,97.20
3369.00,97.20
3368.00,97.20
3367.00,97.20
3366.00,97.20
3365.00,97.20
3364.00,97.20
3363.00,97.20
3362.00,97.20
3361.00,97.21
3360.00,97.22
3359.00,97.22
3358.00,97.22
3357.00,97.22
3356.00,97.22
3355.00,97.22
3354.00,97.22
3353.00,97.23
3352.00,97.24
3351.00,97.25
3350.00,97.25
3349.00,97.25
3348.00,97.25
3347.00,97.26
3346.00,97.27
3345.00,97.28
3344.00,97.29
3343.00,97.30
3342.00,97.30
3341.00,97.31
3340.00,97.31
3339.00,97.32
3338.00,97.32
3337.00,97.32
3336.00,97.32
3335.00,97.32
3334.00,97.32
3333.00,97.32
3332.00,97.33
3331.00,97.33
3330.00,97.33
3329.00,97.33
3328.00,97.33
3327.00,97.34
3326.00,97.34
3325.00,97.34
3324.00,97.35
3323.00,97.35
3322.00,97.35
3321.00,97.35
3320.00,97.35
3319.00,97.34
3318.00,97.34
3317.00,97.35
3316.00,97.36
3315.00,97.37
3314.00,97.37
3313.00,97.37
3312.00,97.38
3311.00,97.38
3310.00,97.38
3309.00,97.39
3308.00,97.40
3307.00,97.40
3306.00,97.41
3305.00,97.41
3304.00,97.41
3303.00,97.41
3302.00,97.41
3301.00,97.41
3300.00,97.41
3299.00,97.41
3298.00,97.42
3297.00,97.43
3296.00,97.44
3295.00,97.45
3294.00,97.46
3293.00,97.47
3292.00,97.47
3291.00,97.47
3290.00,97.47
3289.00,97.47
3288.00,97.47
3287.00,97.47
3286.00,97.47
3285.00,97.47
3284.00,97.47
3283.00,97.47
3282.00,97.47
3281.00,97.47
3280.00,97.48
3279.00,97.49
3278.00,97.50
3277.00,97.51
3276.00,97.51
3275.00,97.52
3274.00,97.53
3273.00,97.54
3272.00,97.55
3271.00,97.56
3270.00,97.56
3269.00,97.56
3268.00,97.55
3267.00,97.56
3266.00,97.56
3265.00,97.57
3264.00,97.58
3263.00,97.59
3262.00,97.59
3261.00,97.60
3260.00,97.61
3259.00,97.61
3258.00,97.62
3257.00,97.62
3256.00,97.63
3255.00,97.64
3254.00,97.65
3253.00,97.65
3252.00,97.66
3251.00,97.67
3250.00,97.68
3249.00,97.69
3248.00,97.70
3247.00,97.70
3246.00,97.71
3245.00,97.71
3244.00,97.72
3243.00,97.73
3242.00,97.74
3241.00,97.75
3240.00,97.76
3239.00,97.77
3238.00,97.77
3237.00,97.78
3236.00,97.78
3235.00,97.79
3234.00,97.80
3233.00,97.80
3232.00,97.80
3231.00,97.81
3230.00,97.81
3229.00,97.81
3228.00,97.82
3227.00,97.82
3226.00,97.83
3225.00,97.83
3224.00,97.84
3223.00,97.84
3222.00,97.84
3221.00,97.84
3220.00,97.84
3219.00,97.85
3218.00,97.86
3217.00,97.86
3216.00,97.87
3215.00,97.88
3214.00,97.89
3213.00,97.89
3212.00,97.89
3211.00,97.90
3210.00,97.91
3209.00,97.92
3208.00,97.93
3207.00,97.93
3206.00,97.94
3205.00,97.94
3204.00,97.94
3203.00,97.95
3202.00,97.95
3201.00,97.96
3200.00,97.96
3199.00,97.96
3198.00,97.97
3197.00,97.98
3196.00,97.99
3195.00,98.00
3194.00,98.01
3193.00,98.02
3192.00,98.03
3191.00,98.04
3190.00,98.04
3189.00,98.04
3188.00,98.05
3187.00,98.06
3186.00,98.06
3185.00,98.07
3184.00,98.07
3183.00,98.08
3182.00,98.09
3181.00,98.09
3180.00,98.10
3179.00,98.11
3178.00,98.11
3177.00,98.12
3176.00,98.12
3175.00,98.12
3174.00,98.12
3173.00,98.13
3172.00,98.15
3171.00,98.16
3170.00,98.17
3169.00,98.17
3168.00,98.18
3167.00,98.18
3166.00,98.19
3165.00,98.19
3164.00,98.20
3163.00,98.21
3162.00,98.21
3161.00,98.21
3160.00,98.22
3159.00,98.22
3158.00,98.22
3157.00,98.23
3156.00,98.23
3155.00,98.23
3154.00,98.23
3153.00,98.24
3152.00,98.25
3151.00,98.26
3150.00,98.26
3149.00,98.26
3148.00,98.26
3147.00,98.26
3146.00,98.27
3145.00,98.27
3144.00,98.28
3143.00,98.28
3142.00,98.28
3141.00,98.28
3140.00,98.28
3139.00,98.29
3138.00,98.29
3137.00,98.29
3136.00,98.29
3135.00,98.30
3134.00,98.30
3133.00,98.30
3132.00,98.30
3131.00,98.31
3130.00,98.31
3129.00,98.31
3128.00,98.32
3127.00,98.32
3126.00,98.32
3125.00,98.32
3124.00,98.33
3123.00,98.33
3122.00,98.33
3121.00,98.34
3120.00,98.34
3119.00,98.34
3118.00,98.34
3117.00,98.34
3116.00,98.34
3115.00,98.35
3114.00,98.35
3113.00,98.35
3112.00,98.35
3111.00,98.34
3110.00,98.34
3109.00,98.33
3108.00,98.33
3107.00,98.32
3106.00,98.32
3105.00,98.32
3104.00,98.32
3103.00,98.32
3102.00,98.32
3101.00,98.31
3100.00,98.30
3099.00,98.30
3098.00,98.30
3097.00,98.30
3096.00,98.29
3095.00,98.29
3094.00,98.28
3093.00,98.28
3092.00,98.27
3091.00,98.27
3090.00,98.26
3089.00,98.26
3088.00,98.26
3087.00,98.25
3086.00,98.25
3085.00,98.25
3084.00,98.25
3083.00,98.25
3082.00,98.25
3081.00,98.25
3080.00,98.25
3079.00,98.25
3078.00,98.25
3077.00,98.25
3076.00,98.25
3075.00,98.25
3074.00,98.25
3073.00,98.25
3072.00,98.24
3071.00,98.24
3070.00,98.23
3069.00,98.22
3068.00,98.22
3067.00,98.22
3066.00,98.23
3065.00,98.23
3064.00,98.23
3063.00,98.23
3062.00,98.23
3061.00,98.22
3060.00,98.22
3059.00,98.22
3058.00,98.22
3057.00,98.22
3056.00,98.21
3055.00,98.21
3054.00,98.21
3053.00,98.21
3052.00,98.20
3051.00,98.20
3050.00,98.20
3049.00,98.19
3048.00,98.19
3047.00,98.18
3046.00,98.18
3045.00,98.17
3044.00,98.16
3043.00,98.16
3042.00,98.15
3041.00,98.14
3040.00,98.14
3039.00,98.13
3038.00,98.12
3037.00,98.11
3036.00,98.10
3035.00,98.10
3034.00,98.09
3033.00,98.08
3032.00,98.08
3031.00,98.07
3030.00,98.06
3029.00,98.05
3028.00,98.04
3027.00,98.04
3026.00,98.04
3025.00,98.04
3024.00,98.03
3023.00,98.03
3022.00,98.02
3021.00,98.01
3020.00,98.00
3019.00,98.00
3018.00,97.99
3017.00,97.98
3016.00,97.97
3015.00,97.96
3014.00,97.95
3013.00,97.95
3012.00,97.94
3011.00,97.93
3010.00,97.92
3009.00,97.91
3008.00,97.90
3007.00,97.88
3006.00,97.86
3005.00,97.85
3004.00,97.84
3003.00,97.82
3002.00,97.80
3001.00,97.77
3000.00,97.75
2999.00,97.72
2998.00,97.69
2997.00,97.67
2996.00,97.64
2995.00,97.61
2994.00,97.58
2993.00,97.54
2992.00,97.49
2991.00,97.44
2990.00,97.39
2989.00,97.34
2988.00,97.29
2987.00,97.23
2986.00,97.17
2985.00,97.11
2984.00,97.04
2983.00,96.96
2982.00,96.88
2981.00,96.78
2980.00,96.68
2979.00,96.57
2978.00,96.45
2977.00,96.31
2976.00,96.17
2975.00,96.01
2974.00,95.84
2973.00,95.66
2972.00,95.46
2971.00,95.25
2970.00,95.03
2969.00,94.79
2968.00,94.55
2967.00,94.30
2966.00,94.05
2965.00,93.80
2964.00,93.55
2963.00,93.32
2962.00,93.10
2961.00,92.89
2960.00,92.70
2959.00,92.52
2958.00,92.36
2957.00,92.21
2956.00,92.07
2955.00,91.95
2954.00,91.82
2953.00,91.70
2952.00,91.57
2951.00,91.41
2950.00,91.23
2949.00,91.01
2948.00,90.74
2947.00,90.40
2946.00,90.00
2945.00,89.52
2944.00,88.97
2943.00,88.34
2942.00,87.64
2941.00,86.87
2940.00,86.04
2939.00,85.14
2938.00,84.18
2937.00,83.16
2936.00,82.06
2935.00,80.90
2934.00,79.67
2933.00,78.37
2932.00,76.98
2931.00,75.51
2930.00,73.96
2929.00,72.30
2928.00,70.54
2927.00,68.66
2926.00,66.64
2925.00,64.45
2924.00,62.09
2923.00,59.56
2922.00,56.86
2921.00,54.06
2920.00,51.28
2919.00,48.68
2918.00,46.50
2917.00,44.99
2916.00,44.37
2915.00,44.72
2914.00,45.98
2913.00,47.96
2912.00,50.39
2911.00,52.99
2910.00,55.56
2909.00,57.97
2908.00,60.15
2907.00,62.07
2906.00,63.75
2905.00,65.21
2904.00,66.48
2903.00,67.60
2902.00,68.60
2901.00,69.50
2900.00,70.33
2899.00,71.10
2898.00,71.83
2897.00,72.55
2896.00,73.26
2895.00,73.97
2894.00,74.69
2893.00,75.41
2892.00,76.14
2891.00,76.87
2890.00,77.62
2889.00,78.36
2888.00,79.12
2887.00,79.87
2886.00,80.61
2885.00,81.34
2884.00,82.06
2883.00,82.77
2882.00,83.45
2881.00,84.10
2880.00,84.72
2879.00,85.30
2878.00,85.81
2877.00,86.26
2876.00,86.63
2875.00,86.93
2874.00,87.16
2873.00,87.34
2872.00,87.47
2871.00,87.55
2870.00,87.58
2869.00,87.54
2868.00,87.43
2867.00,87.22
2866.00,86.90
2865.00,86.45
2864.00,85.85
2863.00,85.10
2862.00,84.18
2861.00,83.07
2860.00,81.76
2859.00,80.22
2858.00,78.44
2857.00,76.37
2856.00,73.95
2855.00,71.12
2854.00,67.81
2853.00,64.04
2852.00,59.93
2851.00,55.82
2850.00,52.28
2849.00,49.94
2848.00,49.28
2847.00,50.44
2846.00,53.17
2845.00,56.92
2844.00,61.15
2843.00,65.37
2842.00,69.31
2841.00,72.82
2840.00,75.87
2839.00,78.47
2838.00,80.68
2837.00,82.55
2836.00,84.12
2835.00,85.47
2834.00,86.61
2833.00,87.59
2832.00,88.43
2831.00,89.16
2830.00,89.81
2829.00,90.39
2828.00,90.90
2827.00,91.37
2826.00,91.79
2825.00,92.17
2824.00,92.51
2823.00,92.81
2822.00,93.10
2821.00,93.36
2820.00,93.60
2819.00,93.83
2818.00,94.04
2817.00,94.23
2816.00,94.41
2815.00,94.57
2814.00,94.73
2813.00,94.88
2812.00,95.01
2811.00,95.15
2810.00,95.27
2809.00,95.40
2808.00,95.51
2807.00,95.63
2806.00,95.73
2805.00,95.83
2804.00,95.92
2803.00,96.01
2802.00,96.09
2801.00,96.17
2800.00,96.25
2799.00,96.33
2798.00,96.40
2797.00,96.48
2796.00,96.56
2795.00,96.63
2794.00,96.70
2793.00,96.76
2792.00,96.83
2791.00,96.90
2790.00,96.97
2789.00,97.03
2788.00,97.09
2787.00,97.14
2786.00,97.20
2785.00,97.26
2784.00,97.31
2783.00,97.35
2782.00,97.40
2781.00,97.44
2780.00,97.49
2779.00,97.53
2778.00,97.57
2777.00,97.61
2776.00,97.65
2775.00,97.68
2774.00,97.71
2773.00,97.73
2772.00,97.76
2771.00,97.78
2770.00,97.80
2769.00,97.82
2768.00,97.84
2767.00,97.86
2766.00,97.88
2765.00,97.90
2764.00,97.91
2763.00,97.93
2762.00,97.95
2761.00,97.96
2760.00,97.98
2759.00,97.99
2758.00,98.00
2757.00,98.01
2756.00,98.02
2755.00,98.02
2754.00,98.03
2753.00,98.04
2752.00,98.05
2751.00,98.06
2750.00,98.07
2749.00,98.08
2748.00,98.08
2747.00,98.09
2746.00,98.09
2745.00,98.10
2744.00,98.10
2743.00,98.10
2742.00,98.10
2741.00,98.09
2740.00,98.09
2739.00,98.09
2738.00,98.10
2737.00,98.10
2736.00,98.11
2735.00,98.12
2734.00,98.13
2733.00,98.14
2732.00,98.14
2731.00,98.15
2730.00,98.16
2729.00,98.17
2728.00,98.18
2727.00,98.19
2726.00,98.20
2725.00,98.21
2724.00,98.22
2723.00,98.23
2722.00,98.24
2721.00,98.25
2720.00,98.26
2719.00,98.27
2718.00,98.28
2717.00,98.29
2716.00,98.29
2715.00,98.29
2714.00,98.30
2713.00,98.31
2712.00,98.32
2711.00,98.32
2710.00,98.33
2709.00,98.34
2708.00,98.34
2707.00,98.35
2706.00,98.36
2705.00,98.37
2704.00,98.37
2703.00,98.38
2702.00,98.38
2701.00,98.39
2700.00,98.39
2699.00,98.39
2698.00,98.40
2697.00,98.40
2696.00,98.40
2695.00,98.39
2694.00,98.39
2693.00,98.38
2692.00,98.38
2691.00,98.39
2690.00,98.39
2689.00,98.39
2688.00,98.38
2687.00,98.37
2686.00,98.37
2685.00,98.37
2684.00,98.37
2683.00,98.37
2682.00,98.36
2681.00,98.36
2680.00,98.36
2679.00,98.35
2678.00,98.35
2677.00,98.34
2676.00,98.34
2675.00,98.33
2674.00,98.32
2673.00,98.31
2672.00,98.31
2671.00,98.30
2670.00,98.29
2669.00,98.28
2668.00,98.27
2667.00,98.26
2666.00,98.26
2665.00,98.25
2664.00,98.25
2663.00,98.24
2662.00,98.24
2661.00,98.24
2660.00,98.23
2659.00,98.23
2658.00,98.23
2657.00,98.23
2656.00,98.23
2655.00,98.23
2654.00,98.24
2653.00,98.24
2652.00,98.25
2651.00,98.25
2650.00,98.26
2649.00,98.26
2648.00,98.27
2647.00,98.27
2646.00,98.28
2645.00,98.28
2644.00,98.28
2643.00,98.28
2642.00,98.27
2641.00,98.27
2640.00,98.27
2639.00,98.27
2638.00,98.27
2637.00,98.27
2636.00,98.28
2635.00,98.28
2634.00,98.29
2633.00,98.30
2632.00,98.31
2631.00,98.32
2630.00,98.34
2629.00,98.35
2628.00,98.37
2627.00,98.38
2626.00,98.40
2625.00,98.42
2624.00,98.43
2623.00,98.44
2622.00,98.45
2621.00,98.46
2620.00,98.48
2619.00,98.50
2618.00,98.52
2617.00,98.54
2616.00,98.55
2615.00,98.55
2614.00,98.56
2613.00,98.57
2612.00,98.58
2611.00,98.60
2610.00,98.62
2609.00,98.63
2608.00,98.64
2607.00,98.64
2606.00,98.65
2605.00,98.65
2604.00,98.66
2603.00,98.66
2602.00,98.67
2601.00,98.67
2600.00,98.68
2599.00,98.70
2598.00,98.71
2597.00,98.72
2596.00,98.73
2595.00,98.73
2594.00,98.74
2593.00,98.75
2592.00,98.76
2591.00,98.76
2590.00,98.77
2589.00,98.78
2588.00,98.79
2587.00,98.80
2586.00,98.80
2585.00,98.81
2584.00,98.81
2583.00,98.82
2582.00,98.83
2581.00,98.84
2580.00,98.85
2579.00,98.87
2578.00,98.88
2577.00,98.89
2576.00,98.90
2575.00,98.90
2574.00,98.91
2573.00,98.91
2572.00,98.91
2571.00,98.92
2570.00,98.92
2569.00,98.92
2568.00,98.92
2567.00,98.93
2566.00,98.93
2565.00,98.94
2564.00,98.95
2563.00,98.95
2562.00,98.96
2561.00,98.96
2560.00,98.96
2559.00,98.97
2558.00,98.97
2557.00,98.98
2556.00,98.98
2555.00,98.98
2554.00,98.98
2553.00,98.98
2552.00,98.98
2551.00,98.99
2550.00,98.99
2549.00,98.99
2548.00,99.00
2547.00,99.01
2546.00,99.02
2545.00,99.03
2544.00,99.04
2543.00,99.05
2542.00,99.05
2541.00,99.05
2540.00,99.05
2539.00,99.04
2538.00,99.05
2537.00,99.06
2536.00,99.07
2535.00,99.08
2534.00,99.09
2533.00,99.09
2532.00,99.09
2531.00,99.09
2530.00,99.09
2529.00,99.09
2528.00,99.08
2527.00,99.07
2526.00,99.07
2525.00,99.06
2524.00,99.07
2523.00,99.08
2522.00,99.10
2521.00,99.11
2520.00,99.12
2519.00,99.12
2518.00,99.13
2517.00,99.13
2516.00,99.14
2515.00,99.15
2514.00,99.16
2513.00,99.17
2512.00,99.18
2511.00,99.19
2510.00,99.20
2509.00,99.20
2508.00,99.20
2507.00,99.20
2506.00,99.21
2505.00,99.21
2504.00,99.22
2503.00,99.22
2502.00,99.23
2501.00,99.23
2500.00,99.23
2499.00,99.22
2498.00,99.22
2497.00,99.22
2496.00,99.21
2495.00,99.21
2494.00,99.21
2493.00,99.22
2492.00,99.24
2491.00,99.24
2490.00,99.25
2489.00,99.25
2488.00,99.25
2487.00,99.25
2486.00,99.25
2485.00,99.25
2484.00,99.25
2483.00,99.26
2482.00,99.26
2481.00,99.26
2480.00,99.26
2479.00,99.26
2478.00,99.27
2477.00,99.28
2476.00,99.28
2475.00,99.28
2474.00,99.28
2473.00,99.28
2472.00,99.27
2471.00,99.27
2470.00,99.28
2469.00,99.28
2468.00,99.29
2467.00,99.30
2466.00,99.31
2465.00,99.32
2464.00,99.32
2463.00,99.33
2462.00,99.32
2461.00,99.32
2460.00,99.32
2459.00,99.32
2458.00,99.32
2457.00,99.31
2456.00,99.30
2455.00,99.30
2454.00,99.30
2453.00,99.31
2452.00,99.32
2451.00,99.33
2450.00,99.33
2449.00,99.33
2448.00,99.33
2447.00,99.33
2446.00,99.34
2445.00,99.35
2444.00,99.35
2443.00,99.35
2442.00,99.35
2441.00,99.36
2440.00,99.36
2439.00,99.37
2438.00,99.38
2437.00,99.38
2436.00,99.37
2435.00,99.37
2434.00,99.36
2433.00,99.37
2432.00,99.37
2431.00,99.37
2430.00,99.36
2429.00,99.37
2428.00,99.37
2427.00,99.38
2426.00,99.38
2425.00,99.39
2424.00,99.38
2423.00,99.38
2422.00,99.38
2421.00,99.37
2420.00,99.37
2419.00,99.37
2418.00,99.36
2417.00,99.36
2416.00,99.36
2415.00,99.36
2414.00,99.37
2413.00,99.37
2412.00,99.37
2411.00,99.37
2410.00,99.38
2409.00,99.38
2408.00,99.38
2407.00,99.39
2406.00,99.40
2405.00,99.41
2404.00,99.41
2403.00,99.42
2402.00,99.42
2401.00,99.43
2400.00,99.43
2399.00,99.42
2398.00,99.42
2397.00,99.42
2396.00,99.42
2395.00,99.43
2394.00,99.43
2393.00,99.43
2392.00,99.43
2391.00,99.43
2390.00,99.42
2389.00,99.42
2388.00,99.41
2387.00,99.41
2386.00,99.40
2385.00,99.40
2384.00,99.39
2383.00,99.39
2382.00,99.40
2381.00,99.41
2380.00,99.42
2379.00,99.43
2378.00,99.45
2377.00,99.46
2376.00,99.46
2375.00,99.46
2374.00,99.45
2373.00,99.45
2372.00,99.44
2371.00,99.43
2370.00,99.40
2369.00,99.38
2368.00,99.36
2367.00,99.36
2366.00,99.36
2365.00,99.36
2364.00,99.36
2363.00,99.36
2362.00,99.35
2361.00,99.35
2360.00,99.34
2359.00,99.34
2358.00,99.33
2357.00,99.32
2356.00,99.32
2355.00,99.32
2354.00,99.32
2353.00,99.33
2352.00,99.33
2351.00,99.33
2350.00,99.31
2349.00,99.28
2348.00,99.26
2347.00,99.25
2346.00,99.25
2345.00,99.26
2344.00,99.25
2343.00,99.23
2342.00,99.21
2341.00,99.21
2340.00,99.22
2339.00,99.23
2338.00,99.23
2337.00,99.23
2336.00,99.23
2335.00,99.23
2334.00,99.22
2333.00,99.22
2332.00,99.22
2331.00,99.21
2330.00,99.20
2329.00,99.19
2328.00,99.17
2327.00,99.14
2326.00,99.09
2325.00,99.05
2324.00,99.04
2323.00,99.05
2322.00,99.09
2321.00,99.13
2320.00,99.15
2319.00,99.16
2318.00,99.16
2317.00,99.16
2316.00,99.16
2315.00,99.17
2314.00,99.18
2313.00,99.19
2312.00,99.20
2311.00,99.20
2310.00,99.20
2309.00,99.20
2308.00,99.21
2307.00,99.22
2306.00,99.23
2305.00,99.24
2304.00,99.24
2303.00,99.24
2302.00,99.24
2301.00,99.24
2300.00,99.24
2299.00,99.24
2298.00,99.25
2297.00,99.26
2296.00,99.27
2295.00,99.27
2294.00,99.27
2293.00,99.26
2292.00,99.26
2291.00,99.25
2290.00,99.25
2289.00,99.24
2288.00,99.24
2287.00,99.24
2286.00,99.24
2285.00,99.26
2284.00,99.27
2283.00,99.29
2282.00,99.31
2281.00,99.31
2280.00,99.32
2279.00,99.32
2278.00,99.34
2277.00,99.35
2276.00,99.36
2275.00,99.37
2274.00,99.38
2273.00,99.40
2272.00,99.41
2271.00,99.41
2270.00,99.42
2269.00,99.42
2268.00,99.43
2267.00,99.44
2266.00,99.47
2265.00,99.49
2264.00,99.51
2263.00,99.52
2262.00,99.52
2261.00,99.51
2260.00,99.48
2259.00,99.46
2258.00,99.44
2257.00,99.44
2256.00,99.45
2255.00,99.45
2254.00,99.46
2253.00,99.47
2252.00,99.48
2251.00,99.48
2250.00,99.49
2249.00,99.49
2248.00,99.50
2247.00,99.51
2246.00,99.52
2245.00,99.52
2244.00,99.51
2243.00,99.50
2242.00,99.49
2241.00,99.49
2240.00,99.48
2239.00,99.49
2238.00,99.50
2237.00,99.51
2236.00,99.52
2235.00,99.52
2234.00,99.51
2233.00,99.50
2232.00,99.51
2231.00,99.52
2230.00,99.55
2229.00,99.57
2228.00,99.58
2227.00,99.56
2226.00,99.55
2225.00,99.53
2224.00,99.52
2223.00,99.53
2222.00,99.55
2221.00,99.58
2220.00,99.59
2219.00,99.58
2218.00,99.57
2217.00,99.57
2216.00,99.57
2215.00,99.59
2214.00,99.61
2213.00,99.61
2212.00,99.61
2211.00,99.61
2210.00,99.60
2209.00,99.60
2208.00,99.59
2207.00,99.57
2206.00,99.55
2205.00,99.54
2204.00,99.52
2203.00,99.51
2202.00,99.52
2201.00,99.53
2200.00,99.54
2199.00,99.55
2198.00,99.56
2197.00,99.56
2196.00,99.57
2195.00,99.58
2194.00,99.60
2193.00,99.61
2192.00,99.60
2191.00,99.57
2190.00,99.55
2189.00,99.55
2188.00,99.56
2187.00,99.58
2186.00,99.60
2185.00,99.61
2184.00,99.62
2183.00,99.64
2182.00,99.66
2181.00,99.67
2180.00,99.66
2179.00,99.64
2178.00,99.63
2177.00,99.62
2176.00,99.62
2175.00,99.62
2174.00,99.62
2173.00,99.63
2172.00,99.62
2171.00,99.61
2170.00,99.59
2169.00,99.56
2168.00,99.53
2167.00,99.51
2166.00,99.50
2165.00,99.49
2164.00,99.47
2163.00,99.44
2162.00,99.44
2161.00,99.48
2160.00,99.59
2159.00,99.72
2158.00,99.83
2157.00,99.90
2156.00,99.92
2155.00,99.93
2154.00,99.93
2153.00,99.92
2152.00,99.90
2151.00,99.88
2150.00,99.86
2149.00,99.82
2148.00,99.77
2147.00,99.74
2146.00,99.74
2145.00,99.76
2144.00,99.78
2143.00,99.80
2142.00,99.81
2141.00,99.80
2140.00,99.77
2139.00,99.75
2138.00,99.74
2137.00,99.75
2136.00,99.79
2135.00,99.83
2134.00,99.87
2133.00,99.88
2132.00,99.86
2131.00,99.83
2130.00,99.80
2129.00,99.78
2128.00,99.78
2127.00,99.77
2126.00,99.76
2125.00,99.73
2124.00,99.70
2123.00,99.67
2122.00,99.66
2121.00,99.66
2120.00,99.66
2119.00,99.66
2118.00,99.65
2117.00,99.63
2116.00,99.61
2115.00,99.59
2114.00,99.59
2113.00,99.58
2112.00,99.57
2111.00,99.55
2110.00,99.56
2109.00,99.57
2108.00,99.58
2107.00,99.59
2106.00,99.59
2105.00,99.59
2104.00,99.58
2103.00,99.58
2102.00,99.59
2101.00,99.58
2100.00,99.58
2099.00,99.57
2098.00,99.58
2097.00,99.59
2096.00,99.61
2095.00,99.64
2094.00,99.66
2093.00,99.67
2092.00,99.67
2091.00,99.66
2090.00,99.64
2089.00,99.61
2088.00,99.59
2087.00,99.58
2086.00,99.57
2085.00,99.56
2084.00,99.54
2083.00,99.53
2082.00,99.55
2081.00,99.57
2080.00,99.59
2079.00,99.59
2078.00,99.60
2077.00,99.60
2076.00,99.60
2075.00,99.61
2074.00,99.60
2073.00,99.59
2072.00,99.57
2071.00,99.57
2070.00,99.59
2069.00,99.62
2068.00,99.63
2067.00,99.62
2066.00,99.60
2065.00,99.59
2064.00,99.58
2063.00,99.58
2062.00,99.58
2061.00,99.57
2060.00,99.55
2059.00,99.54
2058.00,99.55
2057.00,99.56
2056.00,99.57
2055.00,99.58
2054.00,99.56
2053.00,99.51
2052.00,99.44
2051.00,99.38
2050.00,99.38
2049.00,99.42
2048.00,99.49
2047.00,99.54
2046.00,99.57
2045.00,99.57
2044.00,99.55
2043.00,99.55
2042.00,99.55
2041.00,99.54
2040.00,99.51
2039.00,99.48
2038.00,99.46
2037.00,99.45
2036.00,99.46
2035.00,99.50
2034.00,99.56
2033.00,99.61
2032.00,99.64
2031.00,99.66
2030.00,99.66
2029.00,99.64
2028.00,99.60
2027.00,99.56
2026.00,99.55
2025.00,99.55
2024.00,99.55
2023.00,99.56
2022.00,99.57
2021.00,99.57
2020.00,99.56
2019.00,99.55
2018.00,99.56
2017.00,99.55
2016.00,99.54
2015.00,99.54
2014.00,99.55
2013.00,99.57
2012.00,99.57
2011.00,99.59
2010.00,99.62
2009.00,99.65
2008.00,99.69
2007.00,99.73
2006.00,99.77
2005.00,99.78
2004.00,99.77
2003.00,99.75
2002.00,99.75
2001.00,99.74
2000.00,99.73
1999.00,99.74
1998.00,99.76
1997.00,99.77
1996.00,99.73
1995.00,99.67
1994.00,99.63
1993.00,99.61
1992.00,99.60
1991.00,99.61
1990.00,99.63
1989.00,99.64
1988.00,99.66
1987.00,99.67
1986.00,99.66
1985.00,99.63
1984.00,99.58
1983.00,99.56
1982.00,99.57
1981.00,99.57
1980.00,99.56
1979.00,99.58
1978.00,99.61
1977.00,99.64
1976.00,99.64
1975.00,99.64
1974.00,99.65
1973.00,99.68
1972.00,99.71
1971.00,99.73
1970.00,99.75
1969.00,99.74
1968.00,99.71
1967.00,99.70
1966.00,99.72
1965.00,99.72
1964.00,99.72
1963.00,99.72
1962.00,99.75
1961.00,99.79
1960.00,99.80
1959.00,99.79
1958.00,99.77
1957.00,99.73
1956.00,99.70
1955.00,99.70
1954.00,99.71
1953.00,99.72
1952.00,99.71
1951.00,99.71
1950.00,99.71
1949.00,99.70
1948.00,99.69
1947.00,99.69
1946.00,99.70
1945.00,99.72
1944.00,99.71
1943.00,99.68
1942.00,99.67
1941.00,99.65
1940.00,99.64
1939.00,99.63
1938.00,99.63
1937.00,99.63
1936.00,99.63
1935.00,99.63
1934.00,99.64
1933.00,99.63
1932.00,99.62
1931.00,99.62
1930.00,99.63
1929.00,99.63
1928.00,99.63
1927.00,99.62
1926.00,99.62
1925.00,99.61
1924.00,99.59
1923.00,99.58
1922.00,99.57
1921.00,99.58
1920.00,99.59
1919.00,99.61
1918.00,99.62
1917.00,99.63
1916.00,99.61
1915.00,99.59
1914.00,99.58
1913.00,99.57
1912.00,99.56
1911.00,99.56
1910.00,99.57
1909.00,99.57
1908.00,99.56
1907.00,99.55
1906.00,99.54
1905.00,99.53
1904.00,99.52
1903.00,99.52
1902.00,99.51
1901.00,99.51
1900.00,99.50
1899.00,99.49
1898.00,99.49
1897.00,99.47
1896.00,99.46
1895.00,99.45
1894.00,99.45
1893.00,99.47
1892.00,99.49
1891.00,99.52
1890.00,99.55
1889.00,99.57
1888.00,99.57
1887.00,99.56
1886.00,99.55
1885.00,99.54
1884.00,99.54
1883.00,99.54
1882.00,99.56
1881.00,99.57
1880.00,99.57
1879.00,99.56
1878.00,99.56
1877.00,99.55
1876.00,99.55
1875.00,99.55
1874.00,99.56
1873.00,99.57
1872.00,99.57
1871.00,99.58
1870.00,99.58
1869.00,99.57
1868.00,99.56
1867.00,99.55
1866.00,99.55
1865.00,99.55
1864.00,99.55
1863.00,99.54
1862.00,99.54
1861.00,99.55
1860.00,99.56
1859.00,99.57
1858.00,99.58
1857.00,99.58
1856.00,99.57
1855.00,99.57
1854.00,99.56
1853.00,99.55
1852.00,99.53
1851.00,99.53
1850.00,99.53
1849.00,99.54
1848.00,99.55
1847.00,99.56
1846.00,99.57
1845.00,99.58
1844.00,99.59
1843.00,99.58
1842.00,99.56
1841.00,99.53
1840.00,99.51
1839.00,99.50
1838.00,99.50
1837.00,99.51
1836.00,99.51
1835.00,99.51
1834.00,99.51
1833.00,99.51
1832.00,99.51
1831.00,99.50
1830.00,99.49
1829.00,99.48
1828.00,99.47
1827.00,99.47
1826.00,99.47
1825.00,99.46
1824.00,99.44
1823.00,99.42
1822.00,99.41
1821.00,99.41
1820.00,99.41
1819.00,99.42
1818.00,99.43
1817.00,99.42
1816.00,99.41
1815.00,99.39
1814.00,99.37
1813.00,99.35
1812.00,99.33
1811.00,99.32
1810.00,99.31
1809.00,99.30
1808.00,99.29
1807.00,99.27
1806.00,99.26
1805.00,99.25
1804.00,99.24
1803.00,99.23
1802.00,99.22
1801.00,99.19
1800.00,99.16
1799.00,99.13
1798.00,99.11
1797.00,99.10
1796.00,99.08
1795.00,99.07
1794.00,99.05
1793.00,99.03
1792.00,99.00
1791.00,98.97
1790.00,98.94
1789.00,98.91
1788.00,98.89
1787.00,98.86
1786.00,98.85
1785.00,98.82
1784.00,98.79
1783.00,98.75
1782.00,98.72
1781.00,98.70
1780.00,98.67
1779.00,98.65
1778.00,98.63
1777.00,98.61
1776.00,98.58
1775.00,98.54
1774.00,98.51
1773.00,98.47
1772.00,98.44
1771.00,98.42
1770.00,98.40
1769.00,98.36
1768.00,98.31
1767.00,98.25
1766.00,98.21
1765.00,98.17
1764.00,98.12
1763.00,98.06
1762.00,97.99
1761.00,97.91
1760.00,97.83
1759.00,97.74
1758.00,97.65
1757.00,97.53
1756.00,97.39
1755.00,97.24
1754.00,97.09
1753.00,96.93
1752.00,96.73
1751.00,96.49
1750.00,96.23
1749.00,95.96
1748.00,95.69
1747.00,95.43
1746.00,95.18
1745.00,94.94
1744.00,94.69
1743.00,94.45
1742.00,94.25
1741.00,94.08
1740.00,93.92
1739.00,93.80
1738.00,93.74
1737.00,93.72
1736.00,93.72
1735.00,93.73
1734.00,93.72
1733.00,93.71
1732.00,93.70
1731.00,93.70
1730.00,93.70
1729.00,93.67
1728.00,93.61
1727.00,93.52
1726.00,93.40
1725.00,93.26
1724.00,93.10
1723.00,92.95
1722.00,92.82
1721.00,92.73
1720.00,92.64
1719.00,92.50
1718.00,92.31
1717.00,92.11
1716.00,91.95
1715.00,91.85
1714.00,91.79
1713.00,91.77
1712.00,91.80
1711.00,91.86
1710.00,91.96
1709.00,92.09
1708.00,92.23
1707.00,92.40
1706.00,92.58
1705.00,92.75
1704.00,92.90
1703.00,93.04
1702.00,93.17
1701.00,93.30
1700.00,93.39
1699.00,93.44
1698.00,93.48
1697.00,93.56
1696.00,93.69
1695.00,93.83
1694.00,93.94
1693.00,94.01
1692.00,94.05
1691.00,94.10
1690.00,94.13
1689.00,94.14
1688.00,94.13
1687.00,94.13
1686.00,94.12
1685.00,94.10
1684.00,94.04
1683.00,93.96
1682.00,93.89
1681.00,93.81
1680.00,93.74
1679.00,93.67
1678.00,93.62
1677.00,93.56
1676.00,93.46
1675.00,93.32
1674.00,93.18
1673.00,93.05
1672.00,92.93
1671.00,92.80
1670.00,92.64
1669.00,92.46
1668.00,92.28
1667.00,92.13
1666.00,92.02
1665.00,91.92
1664.00,91.80
1663.00,91.65
1662.00,91.51
1661.00,91.39
1660.00,91.28
1659.00,91.20
1658.00,91.16
1657.00,91.13
1656.00,91.12
1655.00,91.12
1654.00,91.12
1653.00,91.10
1652.00,91.09
1651.00,91.12
1650.00,91.18
1649.00,91.26
1648.00,91.35
1647.00,91.45
1646.00,91.56
1645.00,91.64
1644.00,91.71
1643.00,91.78
1642.00,91.87
1641.00,91.96
1640.00,92.04
1639.00,92.13
1638.00,92.21
1637.00,92.31
1636.00,92.44
1635.00,92.55
1634.00,92.64
1633.00,92.71
1632.00,92.77
1631.00,92.86
1630.00,92.96
1629.00,93.07
1628.00,93.18
1627.00,93.29
1626.00,93.40
1625.00,93.51
1624.00,93.63
1623.00,93.76
1622.00,93.88
1621.00,93.99
1620.00,94.07
1619.00,94.17
1618.00,94.29
1617.00,94.44
1616.00,94.60
1615.00,94.74
1614.00,94.86
1613.00,94.97
1612.00,95.09
1611.00,95.22
1610.00,95.35
1609.00,95.48
1608.00,95.61
1607.00,95.75
1606.00,95.88
1605.00,96.01
1604.00,96.14
1603.00,96.27
1602.00,96.40
1601.00,96.53
1600.00,96.64
1599.00,96.76
1598.00,96.87
1597.00,96.97
1596.00,97.07
1595.00,97.17
1594.00,97.26
1593.00,97.34
1592.00,97.41
1591.00,97.48
1590.00,97.56
1589.00,97.63
1588.00,97.71
1587.00,97.79
1586.00,97.87
1585.00,97.95
1584.00,98.03
1583.00,98.12
1582.00,98.21
1581.00,98.31
1580.00,98.39
1579.00,98.46
1578.00,98.51
1577.00,98.54
1576.00,98.59
1575.00,98.64
1574.00,98.67
1573.00,98.66
1572.00,98.64
1571.00,98.61
1570.00,98.56
1569.00,98.51
1568.00,98.46
1567.00,98.43
1566.00,98.40
1565.00,98.37
1564.00,98.35
1563.00,98.34
1562.00,98.35
1561.00,98.36
1560.00,98.33
1559.00,98.32
1558.00,98.35
1557.00,98.37
1556.00,98.35
1555.00,98.34
1554.00,98.35
1553.00,98.36
1552.00,98.37
1551.00,98.40
1550.00,98.43
1549.00,98.47
1548.00,98.52
1547.00,98.59
1546.00,98.67
1545.00,98.75
1544.00,98.82
1543.00,98.89
1542.00,98.95
1541.00,98.97
1540.00,98.97
1539.00,98.96
1538.00,98.94
1537.00,98.89
1536.00,98.82
1535.00,98.73
1534.00,98.62
1533.00,98.51
1532.00,98.42
1531.00,98.37
1530.00,98.33
1529.00,98.29
1528.00,98.25
1527.00,98.22
1526.00,98.20
1525.00,98.17
1524.00,98.15
1523.00,98.13
1522.00,98.12
1521.00,98.12
1520.00,98.12
1519.00,98.13
1518.00,98.12
1517.00,98.11
1516.00,98.10
1515.00,98.10
1514.00,98.10
1513.00,98.10
1512.00,98.09
1511.00,98.09
1510.00,98.08
1509.00,98.04
1508.00,97.98
1507.00,97.95
1506.00,97.99
1505.00,98.01
1504.00,98.01
1503.00,98.00
1502.00,98.00
1501.00,97.98
1500.00,97.97
1499.00,97.95
1498.00,97.94
1497.00,97.90
1496.00,97.86
1495.00,97.83
1494.00,97.83
1493.00,97.81
1492.00,97.78
1491.00,97.75
1490.00,97.70
1489.00,97.64
1488.00,97.56
1487.00,97.49
1486.00,97.42
1485.00,97.32
1484.00,97.20
1483.00,97.06
1482.00,96.87
1481.00,96.61
1480.00,96.27
1479.00,95.81
1478.00,94.99
1477.00,93.47
1476.00,91.05
1475.00,87.92
1474.00,84.70
1473.00,82.45
1472.00,82.01
1471.00,82.84
1470.00,83.72
1469.00,84.10
1468.00,83.99
1467.00,83.41
1466.00,82.13
1465.00,80.10
1464.00,78.07
1463.00,77.14
1462.00,77.69
1461.00,79.42
1460.00,81.74
1459.00,84.10
1458.00,86.09
1457.00,87.55
1456.00,88.54
1455.00,89.24
1454.00,89.84
1453.00,90.44
1452.00,91.04
1451.00,91.56
1450.00,91.97
1449.00,92.30
1448.00,92.58
1447.00,92.79
1446.00,92.94
1445.00,93.07
1444.00,93.20
1443.00,93.32
1442.00,93.43
1441.00,93.55
1440.00,93.69
1439.00,93.84
1438.00,93.99
1437.00,94.14
1436.00,94.29
1435.00,94.42
1434.00,94.54
1433.00,94.68
1432.00,94.84
1431.00,95.01
1430.00,95.17
1429.00,95.32
1428.00,95.47
1427.00,95.59
1426.00,95.67
1425.00,95.75
1424.00,95.80
1423.00,95.84
1422.00,95.86
1421.00,95.88
1420.00,95.90
1419.00,95.88
1418.00,95.85
1417.00,95.82
1416.00,95.81
1415.00,95.79
1414.00,95.77
1413.00,95.76
1412.00,95.76
1411.00,95.76
1410.00,95.77
1409.00,95.79
1408.00,95.83
1407.00,95.87
1406.00,95.90
1405.00,95.94
1404.00,95.98
1403.00,96.02
1402.00,96.05
1401.00,96.09
1400.00,96.12
1399.00,96.14
1398.00,96.14
1397.00,96.15
1396.00,96.16
1395.00,96.15
1394.00,96.13
1393.00,96.11
1392.00,96.10
1391.00,96.09
1390.00,96.09
1389.00,96.07
1388.00,96.03
1387.00,95.96
1386.00,95.86
1385.00,95.75
1384.00,95.61
1383.00,95.42
1382.00,95.19
1381.00,94.94
1380.00,94.70
1379.00,94.52
1378.00,94.42
1377.00,94.42
1376.00,94.48
1375.00,94.55
1374.00,94.60
1373.00,94.61
1372.00,94.57
1371.00,94.50
1370.00,94.40
1369.00,94.28
1368.00,94.17
1367.00,94.08
1366.00,94.03
1365.00,94.03
1364.00,94.08
1363.00,94.19
1362.00,94.34
1361.00,94.52
1360.00,94.69
1359.00,94.84
1358.00,94.96
1357.00,95.05
1356.00,95.13
1355.00,95.18
1354.00,95.22
1353.00,95.26
1352.00,95.29
1351.00,95.33
1350.00,95.36
1349.00,95.40
1348.00,95.45
1347.00,95.49
1346.00,95.53
1345.00,95.56
1344.00,95.60
1343.00,95.62
1342.00,95.65
1341.00,95.68
1340.00,95.71
1339.00,95.74
1338.00,95.77
1337.00,95.80
1336.00,95.81
1335.00,95.82
1334.00,95.81
1333.00,95.78
1332.00,95.75
1331.00,95.69
1330.00,95.61
1329.00,95.51
1328.00,95.40
1327.00,95.26
1326.00,95.10
1325.00,94.91
1324.00,94.71
1323.00,94.50
1322.00,94.31
1321.00,94.15
1320.00,94.06
1319.00,94.05
1318.00,94.12
1317.00,94.27
1316.00,94.45
1315.00,94.64
1314.00,94.81
1313.00,94.96
1312.00,95.08
1311.00,95.16
1310.00,95.23
1309.00,95.28
1308.00,95.32
1307.00,95.36
1306.00,95.39
1305.00,95.41
1304.00,95.42
1303.00,95.43
1302.00,95.43
1301.00,95.43
1300.00,95.43
1299.00,95.43
1298.00,95.44
1297.00,95.44
1296.00,95.45
1295.00,95.46
1294.00,95.46
1293.00,95.47
1292.00,95.48
1291.00,95.49
1290.00,95.49
1289.00,95.50
1288.00,95.50
1287.00,95.49
1286.00,95.49
1285.00,95.48
1284.00,95.48
1283.00,95.48
1282.00,95.49
1281.00,95.49
1280.00,95.50
1279.00,95.49
1278.00,95.48
1277.00,95.46
1276.00,95.45
1275.00,95.44
1274.00,95.43
1273.00,95.41
1272.00,95.40
1271.00,95.39
1270.00,95.38
1269.00,95.35
1268.00,95.32
1267.00,95.27
1266.00,95.23
1265.00,95.20
1264.00,95.17
1263.00,95.15
1262.00,95.13
1261.00,95.13
1260.00,95.14
1259.00,95.15
1258.00,95.18
1257.00,95.20
1256.00,95.24
1255.00,95.26
1254.00,95.29
1253.00,95.31
1252.00,95.33
1251.00,95.34
1250.00,95.33
1249.00,95.33
1248.00,95.32
1247.00,95.32
1246.00,95.32
1245.00,95.32
1244.00,95.32
1243.00,95.31
1242.00,95.30
1241.00,95.29
1240.00,95.28
1239.00,95.28
1238.00,95.27
1237.00,95.26
1236.00,95.25
1235.00,95.23
1234.00,95.21
1233.00,95.19
1232.00,95.18
1231.00,95.18
1230.00,95.17
1229.00,95.17
1228.00,95.16
1227.00,95.14
1226.00,95.12
1225.00,95.10
1224.00,95.08
1223.00,95.06
1222.00,95.04
1221.00,95.02
1220.00,95.02
1219.00,95.03
1218.00,95.03
1217.00,95.03
1216.00,95.02
1215.00,95.02
1214.00,95.00
1213.00,94.99
1212.00,94.97
1211.00,94.95
1210.00,94.92
1209.00,94.89
1208.00,94.86
1207.00,94.83
1206.00,94.80
1205.00,94.77
1204.00,94.74
1203.00,94.70
1202.00,94.66
1201.00,94.61
1200.00,94.56
1199.00,94.51
1198.00,94.47
1197.00,94.42
1196.00,94.39
1195.00,94.36
1194.00,94.35
1193.00,94.34
1192.00,94.33
1191.00,94.33
1190.00,94.31
1189.00,94.29
1188.00,94.26
1187.00,94.23
1186.00,94.19
1185.00,94.17
1184.00,94.15
1183.00,94.13
1182.00,94.11
1181.00,94.08
1180.00,94.06
1179.00,94.02
1178.00,93.98
1177.00,93.94
1176.00,93.92
1175.00,93.90
1174.00,93.88
1173.00,93.85
1172.00,93.83
1171.00,93.80
1170.00,93.78
1169.00,93.77
1168.00,93.76
1167.00,93.74
1166.00,93.73
1165.00,93.72
1164.00,93.72
1163.00,93.71
1162.00,93.70
1161.00,93.69
1160.00,93.69
1159.00,93.70
1158.00,93.71
1157.00,93.72
1156.00,93.73
1155.00,93.75
1154.00,93.77
1153.00,93.79
1152.00,93.81
1151.00,93.82
1150.00,93.83
1149.00,93.85
1148.00,93.86
1147.00,93.88
1146.00,93.90
1145.00,93.92
1144.00,93.94
1143.00,93.96
1142.00,93.97
1141.00,93.99
1140.00,94.00
1139.00,94.03
1138.00,94.06
1137.00,94.09
1136.00,94.13
1135.00,94.17
1134.00,94.21
1133.00,94.24
1132.00,94.26
1131.00,94.26
1130.00,94.25
1129.00,94.24
1128.00,94.23
1127.00,94.23
1126.00,94.23
1125.00,94.24
1124.00,94.26
1123.00,94.27
1122.00,94.28
1121.00,94.28
1120.00,94.28
1119.00,94.28
1118.00,94.28
1117.00,94.29
1116.00,94.30
1115.00,94.32
1114.00,94.32
1113.00,94.32
1112.00,94.33
1111.00,94.34
1110.00,94.36
1109.00,94.37
1108.00,94.38
1107.00,94.37
1106.00,94.37
1105.00,94.38
1104.00,94.40
1103.00,94.40
1102.00,94.39
1101.00,94.38
1100.00,94.36
1099.00,94.34
1098.00,94.32
1097.00,94.30
1096.00,94.27
1095.00,94.25
1094.00,94.21
1093.00,94.19
1092.00,94.17
1091.00,94.18
1090.00,94.20
1089.00,94.23
1088.00,94.26
1087.00,94.29
1086.00,94.31
1085.00,94.33
1084.00,94.36
1083.00,94.39
1082.00,94.42
1081.00,94.44
1080.00,94.47
1079.00,94.49
1078.00,94.52
1077.00,94.54
1076.00,94.56
1075.00,94.58
1074.00,94.61
1073.00,94.65
1072.00,94.70
1071.00,94.76
1070.00,94.80
1069.00,94.84
1068.00,94.86
1067.00,94.88
1066.00,94.89
1065.00,94.91
1064.00,94.92
1063.00,94.95
1062.00,94.97
1061.00,95.00
1060.00,95.02
1059.00,95.05
1058.00,95.06
1057.00,95.07
1056.00,95.08
1055.00,95.09
1054.00,95.10
1053.00,95.10
1052.00,95.09
1051.00,95.09
1050.00,95.09
1049.00,95.11
1048.00,95.14
1047.00,95.17
1046.00,95.20
1045.00,95.23
1044.00,95.27
1043.00,95.30
1042.00,95.34
1041.00,95.38
1040.00,95.43
1039.00,95.47
1038.00,95.51
1037.00,95.54
1036.00,95.58
1035.00,95.62
1034.00,95.66
1033.00,95.70
1032.00,95.74
1031.00,95.78
1030.00,95.81
1029.00,95.84
1028.00,95.87
1027.00,95.88
1026.00,95.89
1025.00,95.89
1024.00,95.90
1023.00,95.91
1022.00,95.91
1021.00,95.92
1020.00,95.92
1019.00,95.93
1018.00,95.95
1017.00,95.97
1016.00,96.01
1015.00,96.06
1014.00,96.12
1013.00,96.17
1012.00,96.23
1011.00,96.28
1010.00,96.34
1009.00,96.39
1008.00,96.45
1007.00,96.50
1006.00,96.55
1005.00,96.59
1004.00,96.63
1003.00,96.66
1002.00,96.69
1001.00,96.72
1000.00,96.75
999.00,96.78
998.00,96.80
997.00,96.82
996.00,96.83
995.00,96.84
994.00,96.85
993.00,96.86
992.00,96.87
991.00,96.89
990.00,96.90
989.00,96.92
988.00,96.92
987.00,96.93
986.00,96.92
985.00,96.92
984.00,96.92
983.00,96.92
982.00,96.93
981.00,96.95
980.00,96.97
979.00,96.98
978.00,96.99
977.00,97.00
976.00,97.01
975.00,97.01
974.00,97.01
973.00,97.01
972.00,97.01
971.00,97.00
970.00,97.00
969.00,97.00
968.00,97.01
967.00,97.02
966.00,97.03
965.00,97.04
964.00,97.04
963.00,97.04
962.00,97.05
961.00,97.06
960.00,97.07
959.00,97.08
958.00,97.09
957.00,97.10
956.00,97.11
955.00,97.12
954.00,97.13
953.00,97.13
952.00,97.14
951.00,97.15
950.00,97.15
949.00,97.16
948.00,97.16
947.00,97.15
946.00,97.14
945.00,97.14
944.00,97.14
943.00,97.14
942.00,97.14
941.00,97.14
940.00,97.14
939.00,97.14
938.00,97.14
937.00,97.15
936.00,97.17
935.00,97.19
934.00,97.21
933.00,97.23
932.00,97.24
931.00,97.24
930.00,97.24
929.00,97.24
928.00,97.24
927.00,97.25
926.00,97.26
925.00,97.28
924.00,97.30
923.00,97.32
922.00,97.34
921.00,97.35
920.00,97.36
919.00,97.36
918.00,97.36
917.00,97.36
916.00,97.38
915.00,97.40
914.00,97.42
913.00,97.44
912.00,97.46
911.00,97.46
910.00,97.46
909.00,97.47
908.00,97.48
907.00,97.50
906.00,97.51
905.00,97.52
904.00,97.53
903.00,97.53
902.00,97.54
901.00,97.55
900.00,97.55
899.00,97.55
898.00,97.55
897.00,97.54
896.00,97.54
895.00,97.53
894.00,97.52
893.00,97.53
892.00,97.53
891.00,97.55
890.00,97.55
889.00,97.56
888.00,97.56
887.00,97.56
886.00,97.56
885.00,97.56
884.00,97.56
883.00,97.57
882.00,97.59
881.00,97.60
880.00,97.62
879.00,97.63
878.00,97.64
877.00,97.64
876.00,97.63
875.00,97.62
874.00,97.61
873.00,97.62
872.00,97.63
871.00,97.63
870.00,97.64
869.00,97.64
868.00,97.65
867.00,97.65
866.00,97.65
865.00,97.66
864.00,97.66
863.00,97.67
862.00,97.67
861.00,97.67
860.00,97.66
859.00,97.65
858.00,97.64
857.00,97.64
856.00,97.64
855.00,97.64
854.00,97.65
853.00,97.66
852.00,97.66
851.00,97.66
850.00,97.65
849.00,97.64
848.00,97.63
847.00,97.63
846.00,97.62
845.00,97.61
844.00,97.59
843.00,97.58
842.00,97.55
841.00,97.52
840.00,97.49
839.00,97.46
838.00,97.43
837.00,97.40
836.00,97.37
835.00,97.32
834.00,97.26
833.00,97.19
832.00,97.11
831.00,97.02
830.00,96.92
829.00,96.83
828.00,96.75
827.00,96.69
826.00,96.63
825.00,96.58
824.00,96.55
823.00,96.52
822.00,96.51
821.00,96.50
820.00,96.51
819.00,96.54
818.00,96.58
817.00,96.64
816.00,96.69
815.00,96.74
814.00,96.79
813.00,96.81
812.00,96.83
811.00,96.84
810.00,96.85
809.00,96.86
808.00,96.88
807.00,96.89
806.00,96.89
805.00,96.87
804.00,96.85
803.00,96.84
802.00,96.84
801.00,96.85
800.00,96.86
799.00,96.86
798.00,96.87
797.00,96.88
796.00,96.89
795.00,96.91
794.00,96.92
793.00,96.93
792.00,96.93
791.00,96.93
790.00,96.94
789.00,96.94
788.00,96.95
787.00,96.95
786.00,96.94
785.00,96.91
784.00,96.88
783.00,96.86
782.00,96.85
781.00,96.84
780.00,96.83
779.00,96.83
778.00,96.81
777.00,96.80
776.00,96.78
775.00,96.78
774.00,96.77
773.00,96.76
772.00,96.74
771.00,96.73
770.00,96.73
769.00,96.73
768.00,96.72
767.00,96.72
766.00,96.71
765.00,96.69
764.00,96.67
763.00,96.66
762.00,96.66
761.00,96.66
760.00,96.64
759.00,96.63
758.00,96.61
757.00,96.58
756.00,96.55
755.00,96.53
754.00,96.51
753.00,96.49
752.00,96.46
751.00,96.44
750.00,96.42
749.00,96.38
748.00,96.33
747.00,96.28
746.00,96.22
745.00,96.14
744.00,96.05
743.00,95.96
742.00,95.85
741.00,95.72
740.00,95.55
739.00,95.34
738.00,95.06
737.00,94.65
736.00,94.04
735.00,93.03
734.00,91.33
733.00,88.80
732.00,85.80
731.00,83.25
730.00,82.08
729.00,82.56
728.00,84.09
727.00,85.70
726.00,86.68
725.00,86.82
724.00,86.13
723.00,84.52
722.00,81.99
721.00,78.99
720.00,76.66
719.00,76.16
718.00,77.78
717.00,80.84
716.00,84.23
715.00,87.14
714.00,89.33
713.00,90.92
712.00,92.08
711.00,92.94
710.00,93.58
709.00,94.11
708.00,94.54
707.00,94.89
706.00,95.17
705.00,95.43
704.00,95.65
703.00,95.84
702.00,96.00
701.00,96.14
700.00,96.27
699.00,96.38
698.00,96.47
697.00,96.55
696.00,96.62
695.00,96.69
694.00,96.75
693.00,96.82
692.00,96.89
691.00,96.93
690.00,96.95
689.00,96.97
688.00,96.99
687.00,97.00
686.00,97.01
685.00,97.03
684.00,97.05
683.00,97.07
682.00,97.08
681.00,97.09
680.00,97.09
679.00,97.08
678.00,97.08
677.00,97.09
676.00,97.09
675.00,97.08
674.00,97.06
673.00,97.06
672.00,97.08
671.00,97.12
670.00,97.19
669.00,97.33
668.00,97.47
667.00,97.45
666.00,97.32
665.00,97.22
664.00,97.17
663.00,97.13
662.00,97.09
661.00,97.06
660.00,97.03
659.00,97.01
658.00,97.02
657.00,97.05
656.00,97.08
655.00,97.10
654.00,97.11
653.00,97.12
652.00,97.13
651.00,97.12
650.00,97.10
649.00,97.07
648.00,97.04
647.00,97.02
646.00,97.01
645.00,97.01
644.00,97.01
643.00,97.02
642.00,97.02
641.00,97.02
640.00,97.03
639.00,97.03
638.00,97.02
637.00,97.02
636.00,97.03
635.00,97.03
634.00,97.02
633.00,97.01
632.00,96.99
631.00,96.97
630.00,96.95
629.00,96.94
628.00,96.93
627.00,96.92
626.00,96.91
625.00,96.90
624.00,96.90
623.00,96.89
622.00,96.86
621.00,96.83
620.00,96.78
619.00,96.73
618.00,96.70
617.00,96.68
616.00,96.70
615.00,96.73
614.00,96.76
613.00,96.81
612.00,96.83
611.00,96.83
610.00,96.81
609.00,96.78
608.00,96.77
607.00,96.76
606.00,96.76
605.00,96.76
604.00,96.76
603.00,96.77
602.00,96.78
601.00,96.78
600.00,96.79
599.00,96.79
598.00,96.80
597.00,96.80
596.00,96.80
595.00,96.79
594.00,96.80
593.00,96.83
592.00,96.86
591.00,96.89
590.00,96.90
589.00,96.91
588.00,96.91
587.00,96.90
586.00,96.90
585.00,96.90
584.00,96.90
583.00,96.91
582.00,96.94
581.00,96.98
580.00,97.01
579.00,97.01
578.00,97.00
577.00,96.99
576.00,97.00
575.00,97.00
574.00,97.00
573.00,96.99
572.00,96.98
571.00,96.99
570.00,97.01
569.00,97.02
568.00,97.02
567.00,96.98
566.00,96.94
565.00,96.91
564.00,96.91
563.00,96.92
562.00,96.93
561.00,96.96
560.00,96.99
559.00,96.99
558.00,96.97
557.00,96.94
556.00,96.92
555.00,96.92
554.00,96.91
553.00,96.91
552.00,96.89
551.00,96.89
550.00,96.89
549.00,96.90
548.00,96.92
547.00,96.92
546.00,96.93
545.00,96.93
544.00,96.93
543.00,96.90
542.00,96.86
541.00,96.80
540.00,96.73
539.00,96.67
538.00,96.62
537.00,96.60
536.00,96.59
535.00,96.59
534.00,96.59
533.00,96.60
532.00,96.61
531.00,96.63
530.00,96.64
529.00,96.65
528.00,96.65
527.00,96.63
526.00,96.59
525.00,96.55
524.00,96.52
523.00,96.50
522.00,96.49
521.00,96.46
520.00,96.40
519.00,96.30
518.00,96.19
517.00,96.12
516.00,96.08
515.00,96.05
514.00,96.02
513.00,95.98
512.00,95.96
511.00,95.96
510.00,95.99
509.00,96.04
508.00,96.07
507.00,96.06
506.00,96.02
505.00,96.00
504.00,96.00
503.00,96.02
502.00,96.05
501.00,96.07
500.00,96.08
499.00,96.07
498.00,96.04
497.00,96.03
496.00,96.03
495.00,96.00
494.00,95.94
493.00,95.89
492.00,95.87
491.00,95.88
490.00,95.91
489.00,95.95
488.00,95.97
487.00,95.97
486.00,95.95
485.00,95.96
484.00,96.00
483.00,96.04
482.00,96.08
481.00,96.10
480.00,96.13
479.00,96.13
478.00,96.11
477.00,96.07
476.00,96.03
475.00,96.01
474.00,96.00
473.00,96.03
472.00,96.09
471.00,96.15
470.00,96.16
469.00,96.13
468.00,96.07
467.00,96.01
466.00,95.98
465.00,96.00
464.00,96.08
463.00,96.17
462.00,96.25
461.00,96.28
460.00,96.30
459.00,96.30
458.00,96.33
457.00,96.36
456.00,96.36
455.00,96.30
454.00,96.24
453.00,96.23
452.00,96.27
451.00,96.31
450.00,96.34
449.00,96.35
448.00,96.36
447.00,96.38
446.00,96.43
445.00,96.57
444.00,96.77
443.00,96.96
442.00,97.04
441.00,97.04
440.00,97.00
439.00,96.96
438.00,96.95
437.00,96.97
436.00,97.03
435.00,97.08
434.00,97.10
433.00,97.13
432.00,97.17
431.00,97.19
430.00,97.15
429.00,97.03
428.00,96.90
427.00,96.79
426.00,96.82
425.00,97.05
424.00,97.40
423.00,97.67
422.00,97.73
421.00,97.62
420.00,97.42
419.00,97.19
418.00,97.06
417.00,97.12
416.00,97.28
415.00,97.38
414.00,97.31
413.00,97.13
412.00,96.96
411.00,96.91
410.00,96.97
409.00,97.13
408.00,97.31
407.00,97.38
406.00,97.30
405.00,97.24
404.00,97.41
403.00,97.71
402.00,97.83
401.00,97.56
400.00,97.13
