Created as New Dataset,Sample 708 By Administrator Date Monday, September 21 2026
cm-1,%T
4000.00,97.93
3999.00,97.92
3998.00,97.92
3997.00,97.92
3996.00,97.92
3995.00,97.92
3994.00,97.91
3993.00,97.91
3992.00,97.91
3991.00,97.91
3990.00,97.91
3989.00,97.92
3988.00,97.92
3987.00,97.92
3986.00,97.92
3985.00,97.92
3984.00,97.92
3983.00,97.92
3982.00,97.92
3981.00,97.92
3980.00,97.91
3979.00,97.91
3978.00,97.91
3977.00,97.91
3976.00,97.91
3975.00,97.91
3974.00,97.91
3973.00,97.92
3972.00,97.92
3971.00,97.92
3970.00,97.92
3969.00,97.92
3968.00,97.92
3967.00,97.92
3966.00,97.92
3965.00,97.92
3964.00,97.91
3963.00,97.91
3962.00,97.92
3961.00,97.92
3960.00,97.93
3959.00,97.93
3958.00,97.93
3957.00,97.93
3956.00,97.93
3955.00,97.92
3954.00,97.92
3953.00,97.92
3952.00,97.92
3951.00,97.92
3950.00,97.91
3949.00,97.91
3948.00,97.91
3947.00,97.91
3946.00,97.91
3945.00,97.91
3944.00,97.91
3943.00,97.91
3942.00,97.92
3941.00,97.92
3940.00,97.91
3939.00,97.91
3938.00,97.91
3937.00,97.90
3936.00,97.90
3935.00,97.90
3934.00,97.89
3933.00,97.89
3932.00,97.89
3931.00,97.89
3930.00,97.89
3929.00,97.89
3928.00,97.89
3927.00,97.90
3926.00,97.90
3925.00,97.90
3924.00,97.90
3923.00,97.90
3922.00,97.90
3921.00,97.90
3920.00,97.90
3919.00,97.90
3918.00,97.90
3917.00,97.90
3916.00,97.91
3915.00,97.91
3914.00,97.92
3913.00,97.92
3912.00,97.92
3911.00,97.92
3910.00,97.91
3909.00,97.91
3908.00,97.90
3907.00,97.90
3906.00,97.89
3905.00,97.88
3904.00,97.88
3903.00,97.88
3902.00,97.89
3901.00,97.90
3900.00,97.90
3899.00,97.90
3898.00,97.90
3897.00,97.90
3896.00,97.90
3895.00,97.90
3894.00,97.91
3893.00,97.91
3892.00,97.91
3891.00,97.90
3890.00,97.90
3889.00,97.90
3888.00,97.89
3887.00,97.88
3886.00,97.88
3885.00,97.89
3884.00,97.90
3883.00,97.90
3882.00,97.90
3881.00,97.90
3880.00,97.89
3879.00,97.89
3878.00,97.90
3877.00,97.90
3876.00,97.89
3875.00,97.89
3874.00,97.89
3873.00,97.89
3872.00,97.88
3871.00,97.87
3870.00,97.88
3869.00,97.88
3868.00,97.89
3867.00,97.88
3866.00,97.88
3865.00,97.88
3864.00,97.88
3863.00,97.88
3862.00,97.88
3861.00,97.88
3860.00,97.87
3859.00,97.87
3858.00,97.88
3857.00,97.90
3856.00,97.91
3855.00,97.91
3854.00,97.91
3853.00,97.91
3852.00,97.91
3851.00,97.90
3850.00,97.89
3849.00,97.89
3848.00,97.89
3847.00,97.89
3846.00,97.89
3845.00,97.89
3844.00,97.88
3843.00,97.89
3842.00,97.89
3841.00,97.89
3840.00,97.90
3839.00,97.90
3838.00,97.90
3837.00,97.90
3836.00,97.91
3835.00,97.91
3834.00,97.91
3833.00,97.91
3832.00,97.91
3831.00,97.91
3830.00,97.91
3829.00,97.91
3828.00,97.90
3827.00,97.90
3826.00,97.89
3825.00,97.89
3824.00,97.89
3823.00,97.87
3822.00,97.87
3821.00,97.87
3820.00,97.88
3819.00,97.88
3818.00,97.88
3817.00,97.88
3816.00,97.88
3815.00,97.89
3814.00,97.90
3813.00,97.90
3812.00,97.90
3811.00,97.90
3810.00,97.90
3809.00,97.90
3808.00,97.89
3807.00,97.89
3806.00,97.90
3805.00,97.90
3804.00,97.89
3803.00,97.88
3802.00,97.88
3801.00,97.88
3800.00,97.89
3799.00,97.90
3798.00,97.90
3797.00,97.90
3796.00,97.90
3795.00,97.90
3794.00,97.89
3793.00,97.88
3792.00,97.88
3791.00,97.88
3790.00,97.88
3789.00,97.88
3788.00,97.88
3787.00,97.88
3786.00,97.89
3785.00,97.90
3784.00,97.90
3783.00,97.90
3782.00,97.90
3781.00,97.90
3780.00,97.91
3779.00,97.91
3778.00,97.91
3777.00,97.91
3776.00,97.90
3775.00,97.90
3774.00,97.90
3773.00,97.90
3772.00,97.90
3771.00,97.89
3770.00,97.89
3769.00,97.89
3768.00,97.89
3767.00,97.88
3766.00,97.88
3765.00,97.89
3764.00,97.89
3763.00,97.90
3762.00,97.89
3761.00,97.89
3760.00,97.89
3759.00,97.89
3758.00,97.89
3757.00,97.89
3756.00,97.89
3755.00,97.89
3754.00,97.89
3753.00,97.89
3752.00,97.88
3751.00,97.87
3750.00,97.85
3749.00,97.84
3748.00,97.84
3747.00,97.85
3746.00,97.85
3745.00,97.85
3744.00,97.86
3743.00,97.87
3742.00,97.87
3741.00,97.86
3740.00,97.85
3739.00,97.85
3738.00,97.84
3737.00,97.84
3736.00,97.85
3735.00,97.87
3734.00,97.88
3733.00,97.89
3732.00,97.89
3731.00,97.90
3730.00,97.90
3729.00,97.89
3728.00,97.88
3727.00,97.86
3726.00,97.86
3725.00,97.86
3724.00,97.86
3723.00,97.87
3722.00,97.87
3721.00,97.88
3720.00,97.89
3719.00,97.90
3718.00,97.91
3717.00,97.91
3716.00,97.91
3715.00,97.90
3714.00,97.89
3713.00,97.87
3712.00,97.87
3711.00,97.87
3710.00,97.87
3709.00,97.88
3708.00,97.90
3707.00,97.90
3706.00,97.91
3705.00,97.92
3704.00,97.93
3703.00,97.93
3702.00,97.93
3701.00,97.93
3700.00,97.92
3699.00,97.91
3698.00,97.90
3697.00,97.89
3696.00,97.89
3695.00,97.89
3694.00,97.88
3693.00,97.89
3692.00,97.89
3691.00,97.90
3690.00,97.91
3689.00,97.90
3688.00,97.89
3687.00,97.89
3686.00,97.89
3685.00,97.88
3684.00,97.87
3683.00,97.87
3682.00,97.87
3681.00,97.86
3680.00,97.86
3679.00,97.86
3678.00,97.86
3677.00,97.85
3676.00,97.84
3675.00,97.84
3674.00,97.85
3673.00,97.85
3672.00,97.85
3671.00,97.85
3670.00,97.85
3669.00,97.86
3668.00,97.85
3667.00,97.85
3666.00,97.85
3665.00,97.85
3664.00,97.84
3663.00,97.84
3662.00,97.83
3661.00,97.83
3660.00,97.82
3659.00,97.82
3658.00,97.82
3657.00,97.81
3656.00,97.81
3655.00,97.81
3654.00,97.81
3653.00,97.80
3652.00,97.78
3651.00,97.76
3650.00,97.75
3649.00,97.74
3648.00,97.74
3647.00,97.74
3646.00,97.75
3645.00,97.75
3644.00,97.76
3643.00,97.76
3642.00,97.76
3641.00,97.76
3640.00,97.76
3639.00,97.76
3638.00,97.75
3637.00,97.74
3636.00,97.72
3635.00,97.70
3634.00,97.69
3633.00,97.68
3632.00,97.66
3631.00,97.65
3630.00,97.63
3629.00,97.63
3628.00,97.63
3627.00,97.65
3626.00,97.66
3625.00,97.67
3624.00,97.67
3623.00,97.68
3622.00,97.68
3621.00,97.68
3620.00,97.67
3619.00,97.65
3618.00,97.63
3617.00,97.62
3616.00,97.60
3615.00,97.58
3614.00,97.56
3613.00,97.54
3612.00,97.52
3611.00,97.51
3610.00,97.50
3609.00,97.51
3608.00,97.52
3607.00,97.53
3606.00,97.53
3605.00,97.53
3604.00,97.53
3603.00,97.52
3602.00,97.52
3601.00,97.51
3600.00,97.50
3599.00,97.50
3598.00,97.49
3597.00,97.48
3596.00,97.47
3595.00,97.45
3594.00,97.44
3593.00,97.42
3592.00,97.41
3591.00,97.41
3590.00,97.41
3589.00,97.42
3588.00,97.42
3587.00,97.42
3586.00,97.41
3585.00,97.40
3584.00,97.39
3583.00,97.38
3582.00,97.37
3581.00,97.37
3580.00,97.37
3579.00,97.37
3578.00,97.36
3577.00,97.36
3576.00,97.35
3575.00,97.34
3574.00,97.33
3573.00,97.32
3572.00,97.32
3571.00,97.31
3570.00,97.30
3569.00,97.29
3568.00,97.28
3567.00,97.27
3566.00,97.26
3565.00,97.25
3564.00,97.24
3563.00,97.23
3562.00,97.22
3561.00,97.21
3560.00,97.21
3559.00,97.20
3558.00,97.20
3557.00,97.19
3556.00,97.18
3555.00,97.17
3554.00,97.16
3553.00,97.15
3552.00,97.15
3551.00,97.14
3550.00,97.13
3549.00,97.12
3548.00,97.11
3547.00,97.10
3546.00,97.09
3545.00,97.08
3544.00,97.08
3543.00,97.08
3542.00,97.08
3541.00,97.07
3540.00,97.06
3539.00,97.06
3538.00,97.05
3537.00,97.04
3536.00,97.02
3535.00,97.01
3534.00,97.00
3533.00,96.99
3532.00,96.98
3531.00,96.98
3530.00,96.96
3529.00,96.95
3528.00,96.93
3527.00,96.92
3526.00,96.90
3525.00,96.90
3524.00,96.90
3523.00,96.90
3522.00,96.90
3521.00,96.90
3520.00,96.89
3519.00,96.89
3518.00,96.88
3517.00,96.87
3516.00,96.85
3515.00,96.84
3514.00,96.84
3513.00,96.84
3512.00,96.83
3511.00,96.82
3510.00,96.81
3509.00,96.80
3508.00,96.79
3507.00,96.79
3506.00,96.78
3505.00,96.77
3504.00,96.76
3503.00,96.75
3502.00,96.74
3501.00,96.73
3500.00,96.72
3499.00,96.72
3498.00,96.72
3497.00,96.71
3496.00,96.71
3495.00,96.70
3494.00,96.69
3493.00,96.68
3492.00,96.68
3491.00,96.67
3490.00,96.67
3489.00,96.67
3488.00,96.67
3487.00,96.67
3486.00,96.66
3485.00,96.65
3484.00,96.64
3483.00,96.64
3482.00,96.64
3481.00,96.64
3480.00,96.64
3479.00,96.64
3478.00,96.63
3477.00,96.62
3476.00,96.61
3475.00,96.61
3474.00,96.60
3473.00,96.60
3472.00,96.60
3471.00,96.59
3470.00,96.58
3469.00,96.58
3468.00,96.57
3467.00,96.57
3466.00,96.56
3465.00,96.56
3464.00,96.56
3463.00,96.55
3462.00,96.54
3461.00,96.54
3460.00,96.53
3459.00,96.53
3458.00,96.52
3457.00,96.52
3456.00,96.51
3455.00,96.51
3454.00,96.50
3453.00,96.50
3452.00,96.50
3451.00,96.50
3450.00,96.50
3449.00,96.49
3448.00,96.49
3447.00,96.48
3446.00,96.47
3445.00,96.46
3444.00,96.46
3443.00,96.46
3442.00,96.46
3441.00,96.45
3440.00,96.46
3439.00,96.46
3438.00,96.46
3437.00,96.46
3436.00,96.46
3435.00,96.45
3434.00,96.45
3433.00,96.45
3432.00,96.44
3431.00,96.44
3430.00,96.44
3429.00,96.43
3428.00,96.43
3427.00,96.42
3426.00,96.41
3425.00,96.41
3424.00,96.40
3423.00,96.40
3422.00,96.40
3421.00,96.40
3420.00,96.40
3419.00,96.40
3418.00,96.39
3417.00,96.39
3416.00,96.39
3415.00,96.39
3414.00,96.39
3413.00,96.39
3412.00,96.39
3411.00,96.39
3410.00,96.39
3409.00,96.39
3408.00,96.38
3407.00,96.38
3406.00,96.37
3405.00,96.37
3404.00,96.36
3403.00,96.36
3402.00,96.37
3401.00,96.36
3400.00,96.36
3399.00,96.35
3398.00,96.34
3397.00,96.34
3396.00,96.34
3395.00,96.34
3394.00,96.34
3393.00,96.33
3392.00,96.32
3391.00,96.32
3390.00,96.31
3389.00,96.31
3388.00,96.31
3387.00,96.31
3386.00,96.31
3385.00,96.31
3384.00,96.31
3383.00,96.30
3382.00,96.29
3381.00,96.28
3380.00,96.28
3379.00,96.28
3378.00,96.28
3377.00,96.27
3376.00,96.27
3375.00,96.26
3374.00,96.25
3373.00,96.24
3372.00,96.23
3371.00,96.21
3370.00,96.20
3369.00,96.19
3368.00,96.18
3367.00,96.18
3366.00,96.17
3365.00,96.16
3364.00,96.15
3363.00,96.14
3362.00,96.13
3361.00,96.12
3360.00,96.11
3359.00,96.10
3358.00,96.08
3357.00,96.07
3356.00,96.05
3355.00,96.03
3354.00,96.01
3353.00,95.99
3352.00,95.97
3351.00,95.95
3350.00,95.92
3349.00,95.90
3348.00,95.88
3347.00,95.85
3346.00,95.82
3345.00,95.79
3344.00,95.76
3343.00,95.73
3342.00,95.69
3341.00,95.65
3340.00,95.61
3339.00,95.58
3338.00,95.54
3337.00,95.49
3336.00,95.44
3335.00,95.38
3334.00,95.32
3333.00,95.27
3332.00,95.20
3331.00,95.14
3330.00,95.07
3329.00,95.00
3328.00,94.92
3327.00,94.83
3326.00,94.73
3325.00,94.63
3324.00,94.53
3323.00,94.42
3322.00,94.31
3321.00,94.19
3320.00,94.05
3319.00,93.90
3318.00,93.75
3317.00,93.60
3316.00,93.44
3315.00,93.28
3314.00,93.11
3313.00,92.93
3312.00,92.74
3311.00,92.57
3310.00,92.39
3309.00,92.23
3308.00,92.07
3307.00,91.93
3306.00,91.81
3305.00,91.69
3304.00,91.58
3303.00,91.49
3302.00,91.42
3301.00,91.37
3300.00,91.33
3299.00,91.31
3298.00,91.31
3297.00,91.32
3296.00,91.34
3295.00,91.38
3294.00,91.42
3293.00,91.48
3292.00,91.54
3291.00,91.60
3290.00,91.67
3289.00,91.74
3288.00,91.82
3287.00,91.90
3286.00,91.98
3285.00,92.06
3284.00,92.14
3283.00,92.22
3282.00,92.30
3281.00,92.37
3280.00,92.45
3279.00,92.52
3278.00,92.59
3277.00,92.66
3276.00,92.73
3275.00,92.80
3274.00,92.86
3273.00,92.93
3272.00,92.99
3271.00,93.04
3270.00,93.09
3269.00,93.13
3268.00,93.17
3267.00,93.22
3266.00,93.27
3265.00,93.33
3264.00,93.39
3263.00,93.44
3262.00,93.49
3261.00,93.54
3260.00,93.59
3259.00,93.64
3258.00,93.69
3257.00,93.75
3256.00,93.80
3255.00,93.85
3254.00,93.89
3253.00,93.94
3252.00,93.98
3251.00,94.03
3250.00,94.08
3249.00,94.13
3248.00,94.18
3247.00,94.22
3246.00,94.26
3245.00,94.30
3244.00,94.34
3243.00,94.38
3242.00,94.42
3241.00,94.46
3240.00,94.50
3239.00,94.54
3238.00,94.58
3237.00,94.62
3236.00,94.65
3235.00,94.69
3234.00,94.73
3233.00,94.76
3232.00,94.79
3231.00,94.81
3230.00,94.84
3229.00,94.86
3228.00,94.88
3227.00,94.91
3226.00,94.93
3225.00,94.96
3224.00,94.98
3223.00,95.01
3222.00,95.03
3221.00,95.05
3220.00,95.08
3219.00,95.10
3218.00,95.12
3217.00,95.13
3216.00,95.14
3215.00,95.16
3214.00,95.17
3213.00,95.19
3212.00,95.21
3211.00,95.23
3210.00,95.25
3209.00,95.26
3208.00,95.27
3207.00,95.28
3206.00,95.29
3205.00,95.30
3204.00,95.31
3203.00,95.32
3202.00,95.33
3201.00,95.34
3200.00,95.35
3199.00,95.37
3198.00,95.38
3197.00,95.39
3196.00,95.40
3195.00,95.41
3194.00,95.42
3193.00,95.44
3192.00,95.45
3191.00,95.46
3190.00,95.47
3189.00,95.48
3188.00,95.50
3187.00,95.52
3186.00,95.54
3185.00,95.56
3184.00,95.57
3183.00,95.58
3182.00,95.59
3181.00,95.60
3180.00,95.62
3179.00,95.65
3178.00,95.67
3177.00,95.69
3176.00,95.70
3175.00,95.72
3174.00,95.73
3173.00,95.75
3172.00,95.78
3171.00,95.80
3170.00,95.83
3169.00,95.85
3168.00,95.87
3167.00,95.88
3166.00,95.89
3165.00,95.90
3164.00,95.91
3163.00,95.92
3162.00,95.93
3161.00,95.95
3160.00,95.97
3159.00,95.99
3158.00,96.00
3157.00,96.02
3156.00,96.04
3155.00,96.05
3154.00,96.07
3153.00,96.08
3152.00,96.09
3151.00,96.10
3150.00,96.11
3149.00,96.12
3148.00,96.13
3147.00,96.13
3146.00,96.14
3145.00,96.14
3144.00,96.15
3143.00,96.16
3142.00,96.18
3141.00,96.19
3140.00,96.21
3139.00,96.21
3138.00,96.22
3137.00,96.22
3136.00,96.22
3135.00,96.22
3134.00,96.22
3133.00,96.22
3132.00,96.22
3131.00,96.23
3130.00,96.24
3129.00,96.24
3128.00,96.24
3127.00,96.24
3126.00,96.24
3125.00,96.24
3124.00,96.25
3123.00,96.25
3122.00,96.26
3121.00,96.27
3120.00,96.27
3119.00,96.28
3118.00,96.28
3117.00,96.27
3116.00,96.26
3115.00,96.25
3114.00,96.24
3113.00,96.23
3112.00,96.22
3111.00,96.21
3110.00,96.20
3109.00,96.19
3108.00,96.18
3107.00,96.17
3106.00,96.16
3105.00,96.15
3104.00,96.14
3103.00,96.13
3102.00,96.12
3101.00,96.11
3100.00,96.10
3099.00,96.08
3098.00,96.07
3097.00,96.05
3096.00,96.03
3095.00,96.02
3094.00,96.01
3093.00,96.01
3092.00,96.01
3091.00,96.01
3090.00,96.00
3089.00,96.00
3088.00,95.99
3087.00,95.98
3086.00,95.97
3085.00,95.96
3084.00,95.95
3083.00,95.94
3082.00,95.94
3081.00,95.94
3080.00,95.93
3079.00,95.93
3078.00,95.92
3077.00,95.91
3076.00,95.90
3075.00,95.89
3074.00,95.88
3073.00,95.87
3072.00,95.87
3071.00,95.87
3070.00,95.87
3069.00,95.87
3068.00,95.87
3067.00,95.88
3066.00,95.88
3065.00,95.88
3064.00,95.88
3063.00,95.88
3062.00,95.88
3061.00,95.88
3060.00,95.89
3059.00,95.90
3058.00,95.92
3057.00,95.94
3056.00,95.96
3055.00,95.97
3054.00,95.98
3053.00,96.00
3052.00,96.02
3051.00,96.04
3050.00,96.07
3049.00,96.09
3048.00,96.12
3047.00,96.15
3046.00,96.18
3045.00,96.21
3044.00,96.25
3043.00,96.27
3042.00,96.29
3041.00,96.30
3040.00,96.32
3039.00,96.33
3038.00,96.35
3037.00,96.37
3036.00,96.40
3035.00,96.42
3034.00,96.44
3033.00,96.46
3032.00,96.47
3031.00,96.47
3030.00,96.48
3029.00,96.49
3028.00,96.51
3027.00,96.52
3026.00,96.54
3025.00,96.55
3024.00,96.56
3023.00,96.57
3022.00,96.58
3021.00,96.60
3020.00,96.61
3019.00,96.62
3018.00,96.63
3017.00,96.64
3016.00,96.65
3015.00,96.66
3014.00,96.68
3013.00,96.70
3012.00,96.71
3011.00,96.71
3010.00,96.71
3009.00,96.71
3008.00,96.71
3007.00,96.71
3006.00,96.72
3005.00,96.72
3004.00,96.73
3003.00,96.74
3002.00,96.74
3001.00,96.75
3000.00,96.76
2999.00,96.76
2998.00,96.77
2997.00,96.77
2996.00,96.78
2995.00,96.78
2994.00,96.78
2993.00,96.78
2992.00,96.77
2991.00,96.76
2990.00,96.76
2989.00,96.75
2988.00,96.75
2987.00,96.74
2986.00,96.73
2985.00,96.72
2984.00,96.71
2983.00,96.69
2982.00,96.67
2981.00,96.65
2980.00,96.63
2979.00,96.60
2978.00,96.57
2977.00,96.54
2976.00,96.49
2975.00,96.45
2974.00,96.40
2973.00,96.35
2972.00,96.30
2971.00,96.25
2970.00,96.18
2969.00,96.12
2968.00,96.05
2967.00,95.98
2966.00,95.91
2965.00,95.85
2964.00,95.78
2963.00,95.72
2962.00,95.66
2961.00,95.59
2960.00,95.53
2959.00,95.46
2958.00,95.38
2957.00,95.30
2956.00,95.21
2955.00,95.11
2954.00,95.00
2953.00,94.87
2952.00,94.72
2951.00,94.56
2950.00,94.39
2949.00,94.22
2948.00,94.04
2947.00,93.86
2946.00,93.70
2945.00,93.54
2944.00,93.39
2943.00,93.24
2942.00,93.09
2941.00,92.94
2940.00,92.78
2939.00,92.61
2938.00,92.46
2937.00,92.30
2936.00,92.17
2935.00,92.05
2934.00,91.95
2933.00,91.87
2932.00,91.81
2931.00,91.77
2930.00,91.74
2929.00,91.74
2928.00,91.75
2927.00,91.77
2926.00,91.81
2925.00,91.87
2924.00,91.94
2923.00,92.03
2922.00,92.13
2921.00,92.24
2920.00,92.37
2919.00,92.50
2918.00,92.64
2917.00,92.77
2916.00,92.89
2915.00,92.98
2914.00,93.06
2913.00,93.11
2912.00,93.17
2911.00,93.22
2910.00,93.28
2909.00,93.34
2908.00,93.40
2907.00,93.47
2906.00,93.54
2905.00,93.61
2904.00,93.69
2903.00,93.78
2902.00,93.86
2901.00,93.94
2900.00,94.02
2899.00,94.10
2898.00,94.18
2897.00,94.26
2896.00,94.34
2895.00,94.41
2894.00,94.48
2893.00,94.54
2892.00,94.59
2891.00,94.63
2890.00,94.67
2889.00,94.70
2888.00,94.72
2887.00,94.73
2886.00,94.73
2885.00,94.71
2884.00,94.68
2883.00,94.63
2882.00,94.57
2881.00,94.50
2880.00,94.42
2879.00,94.34
2878.00,94.25
2877.00,94.17
2876.00,94.08
2875.00,94.00
2874.00,93.93
2873.00,93.87
2872.00,93.82
2871.00,93.79
2870.00,93.75
2869.00,93.72
2868.00,93.69
2867.00,93.64
2866.00,93.58
2865.00,93.51
2864.00,93.44
2863.00,93.36
2862.00,93.27
2861.00,93.20
2860.00,93.12
2859.00,93.07
2858.00,93.03
2857.00,93.02
2856.00,93.03
2855.00,93.06
2854.00,93.12
2853.00,93.21
2852.00,93.32
2851.00,93.46
2850.00,93.62
2849.00,93.80
2848.00,93.97
2847.00,94.13
2846.00,94.29
2845.00,94.43
2844.00,94.56
2843.00,94.67
2842.00,94.78
2841.00,94.87
2840.00,94.96
2839.00,95.04
2838.00,95.10
2837.00,95.16
2836.00,95.22
2835.00,95.26
2834.00,95.30
2833.00,95.34
2832.00,95.37
2831.00,95.40
2830.00,95.43
2829.00,95.45
2828.00,95.48
2827.00,95.50
2826.00,95.52
2825.00,95.54
2824.00,95.56
2823.00,95.57
2822.00,95.59
2821.00,95.61
2820.00,95.64
2819.00,95.66
2818.00,95.67
2817.00,95.69
2816.00,95.71
2815.00,95.72
2814.00,95.74
2813.00,95.75
2812.00,95.76
2811.00,95.78
2810.00,95.80
2809.00,95.82
2808.00,95.83
2807.00,95.85
2806.00,95.86
2805.00,95.87
2804.00,95.88
2803.00,95.88
2802.00,95.89
2801.00,95.90
2800.00,95.91
2799.00,95.93
2798.00,95.94
2797.00,95.95
2796.00,95.96
2795.00,95.97
2794.00,95.98
2793.00,95.99
2792.00,96.00
2791.00,96.02
2790.00,96.03
2789.00,96.04
2788.00,96.04
2787.00,96.05
2786.00,96.05
2785.00,96.06
2784.00,96.07
2783.00,96.07
2782.00,96.08
2781.00,96.08
2780.00,96.09
2779.00,96.10
2778.00,96.11
2777.00,96.11
2776.00,96.12
2775.00,96.12
2774.00,96.12
2773.00,96.12
2772.00,96.12
2771.00,96.13
2770.00,96.13
2769.00,96.14
2768.00,96.14
2767.00,96.15
2766.00,96.15
2765.00,96.15
2764.00,96.15
2763.00,96.16
2762.00,96.16
2761.00,96.16
2760.00,96.17
2759.00,96.17
2758.00,96.17
2757.00,96.18
2756.00,96.18
2755.00,96.18
2754.00,96.19
2753.00,96.19
2752.00,96.20
2751.00,96.21
2750.00,96.21
2749.00,96.22
2748.00,96.22
2747.00,96.22
2746.00,96.22
2745.00,96.22
2744.00,96.22
2743.00,96.22
2742.00,96.22
2741.00,96.23
2740.00,96.23
2739.00,96.24
2738.00,96.24
2737.00,96.25
2736.00,96.25
2735.00,96.25
2734.00,96.26
2733.00,96.26
2732.00,96.27
2731.00,96.27
2730.00,96.28
2729.00,96.28
2728.00,96.29
2727.00,96.29
2726.00,96.30
2725.00,96.31
2724.00,96.31
2723.00,96.32
2722.00,96.33
2721.00,96.33
2720.00,96.33
2719.00,96.34
2718.00,96.34
2717.00,96.34
2716.00,96.34
2715.00,96.34
2714.00,96.34
2713.00,96.34
2712.00,96.34
2711.00,96.35
2710.00,96.35
2709.00,96.36
2708.00,96.36
2707.00,96.36
2706.00,96.36
2705.00,96.37
2704.00,96.37
2703.00,96.37
2702.00,96.37
2701.00,96.37
2700.00,96.37
2699.00,96.37
2698.00,96.37
2697.00,96.38
2696.00,96.38
2695.00,96.38
2694.00,96.38
2693.00,96.38
2692.00,96.38
2691.00,96.38
2690.00,96.37
2689.00,96.37
2688.00,96.37
2687.00,96.38
2686.00,96.38
2685.00,96.39
2684.00,96.39
2683.00,96.40
2682.00,96.41
2681.00,96.41
2680.00,96.41
2679.00,96.42
2678.00,96.42
2677.00,96.42
2676.00,96.42
2675.00,96.42
2674.00,96.43
2673.00,96.43
2672.00,96.43
2671.00,96.43
2670.00,96.43
2669.00,96.43
2668.00,96.43
2667.00,96.42
2666.00,96.42
2665.00,96.42
2664.00,96.42
2663.00,96.42
2662.00,96.41
2661.00,96.41
2660.00,96.41
2659.00,96.41
2658.00,96.40
2657.00,96.41
2656.00,96.41
2655.00,96.41
2654.00,96.41
2653.00,96.41
2652.00,96.41
2651.00,96.41
2650.00,96.42
2649.00,96.42
2648.00,96.43
2647.00,96.43
2646.00,96.43
2645.00,96.43
2644.00,96.43
2643.00,96.43
2642.00,96.44
2641.00,96.44
2640.00,96.44
2639.00,96.44
2638.00,96.45
2637.00,96.45
2636.00,96.46
2635.00,96.46
2634.00,96.47
2633.00,96.47
2632.00,96.47
2631.00,96.46
2630.00,96.47
2629.00,96.47
2628.00,96.48
2627.00,96.48
2626.00,96.49
2625.00,96.48
2624.00,96.48
2623.00,96.48
2622.00,96.48
2621.00,96.49
2620.00,96.49
2619.00,96.50
2618.00,96.50
2617.00,96.51
2616.00,96.51
2615.00,96.51
2614.00,96.51
2613.00,96.51
2612.00,96.50
2611.00,96.50
2610.00,96.51
2609.00,96.51
2608.00,96.51
2607.00,96.51
2606.00,96.51
2605.00,96.51
2604.00,96.51
2603.00,96.51
2602.00,96.52
2601.00,96.52
2600.00,96.52
2599.00,96.52
2598.00,96.51
2597.00,96.51
2596.00,96.51
2595.00,96.52
2594.00,96.52
2593.00,96.52
2592.00,96.51
2591.00,96.51
2590.00,96.50
2589.00,96.51
2588.00,96.51
2587.00,96.53
2586.00,96.53
2585.00,96.53
2584.00,96.53
2583.00,96.53
2582.00,96.53
2581.00,96.54
2580.00,96.55
2579.00,96.55
2578.00,96.55
2577.00,96.56
2576.00,96.56
2575.00,96.56
2574.00,96.56
2573.00,96.56
2572.00,96.56
2571.00,96.56
2570.00,96.57
2569.00,96.57
2568.00,96.57
2567.00,96.56
2566.00,96.56
2565.00,96.56
2564.00,96.56
2563.00,96.57
2562.00,96.57
2561.00,96.57
2560.00,96.57
2559.00,96.57
2558.00,96.57
2557.00,96.58
2556.00,96.58
2555.00,96.58
2554.00,96.58
2553.00,96.58
2552.00,96.58
2551.00,96.58
2550.00,96.58
2549.00,96.58
2548.00,96.58
2547.00,96.58
2546.00,96.59
2545.00,96.59
2544.00,96.60
2543.00,96.60
2542.00,96.61
2541.00,96.60
2540.00,96.60
2539.00,96.59
2538.00,96.59
2537.00,96.60
2536.00,96.60
2535.00,96.60
2534.00,96.60
2533.00,96.59
2532.00,96.59
2531.00,96.59
2530.00,96.60
2529.00,96.61
2528.00,96.61
2527.00,96.61
2526.00,96.60
2525.00,96.59
2524.00,96.59
2523.00,96.60
2522.00,96.61
2521.00,96.61
2520.00,96.61
2519.00,96.61
2518.00,96.61
2517.00,96.61
2516.00,96.61
2515.00,96.61
2514.00,96.61
2513.00,96.61
2512.00,96.61
2511.00,96.61
2510.00,96.62
2509.00,96.63
2508.00,96.63
2507.00,96.63
2506.00,96.63
2505.00,96.63
2504.00,96.62
2503.00,96.62
2502.00,96.62
2501.00,96.62
2500.00,96.62
2499.00,96.62
2498.00,96.62
2497.00,96.62
2496.00,96.61
2495.00,96.61
2494.00,96.61
2493.00,96.61
2492.00,96.61
2491.00,96.62
2490.00,96.62
2489.00,96.62
2488.00,96.62
2487.00,96.61
2486.00,96.61
2485.00,96.61
2484.00,96.61
2483.00,96.60
2482.00,96.60
2481.00,96.61
2480.00,96.61
2479.00,96.61
2478.00,96.61
2477.00,96.62
2476.00,96.62
2475.00,96.62
2474.00,96.61
2473.00,96.61
2472.00,96.61
2471.00,96.61
2470.00,96.62
2469.00,96.62
2468.00,96.62
2467.00,96.62
2466.00,96.62
2465.00,96.63
2464.00,96.64
2463.00,96.64
2462.00,96.63
2461.00,96.63
2460.00,96.63
2459.00,96.62
2458.00,96.62
2457.00,96.61
2456.00,96.61
2455.00,96.60
2454.00,96.61
2453.00,96.62
2452.00,96.62
2451.00,96.63
2450.00,96.62
2449.00,96.62
2448.00,96.63
2447.00,96.64
2446.00,96.64
2445.00,96.64
2444.00,96.64
2443.00,96.64
2442.00,96.64
2441.00,96.65
2440.00,96.65
2439.00,96.65
2438.00,96.66
2437.00,96.66
2436.00,96.66
2435.00,96.65
2434.00,96.65
2433.00,96.64
2432.00,96.64
2431.00,96.65
2430.00,96.66
2429.00,96.66
2428.00,96.67
2427.00,96.67
2426.00,96.67
2425.00,96.66
2424.00,96.65
2423.00,96.65
2422.00,96.65
2421.00,96.65
2420.00,96.66
2419.00,96.67
2418.00,96.67
2417.00,96.67
2416.00,96.66
2415.00,96.66
2414.00,96.66
2413.00,96.65
2412.00,96.65
2411.00,96.64
2410.00,96.64
2409.00,96.65
2408.00,96.65
2407.00,96.65
2406.00,96.66
2405.00,96.66
2404.00,96.66
2403.00,96.66
2402.00,96.67
2401.00,96.67
2400.00,96.67
2399.00,96.66
2398.00,96.66
2397.00,96.66
2396.00,96.66
2395.00,96.66
2394.00,96.67
2393.00,96.67
2392.00,96.67
2391.00,96.67
2390.00,96.67
2389.00,96.67
2388.00,96.67
2387.00,96.68
2386.00,96.68
2385.00,96.68
2384.00,96.67
2383.00,96.67
2382.00,96.67
2381.00,96.67
2380.00,96.67
2379.00,96.67
2378.00,96.67
2377.00,96.67
2376.00,96.68
2375.00,96.69
2374.00,96.69
2373.00,96.69
2372.00,96.69
2371.00,96.69
2370.00,96.69
2369.00,96.69
2368.00,96.68
2367.00,96.66
2366.00,96.64
2365.00,96.64
2364.00,96.64
2363.00,96.65
2362.00,96.65
2361.00,96.64
2360.00,96.62
2359.00,96.61
2358.00,96.61
2357.00,96.61
2356.00,96.61
2355.00,96.61
2354.00,96.61
2353.00,96.60
2352.00,96.60
2351.00,96.60
2350.00,96.59
2349.00,96.57
2348.00,96.53
2347.00,96.48
2346.00,96.48
2345.00,96.51
2344.00,96.56
2343.00,96.59
2342.00,96.59
2341.00,96.58
2340.00,96.56
2339.00,96.55
2338.00,96.55
2337.00,96.56
2336.00,96.57
2335.00,96.58
2334.00,96.57
2333.00,96.55
2332.00,96.53
2331.00,96.53
2330.00,96.54
2329.00,96.55
2328.00,96.55
2327.00,96.53
2326.00,96.48
2325.00,96.43
2324.00,96.39
2323.00,96.39
2322.00,96.41
2321.00,96.45
2320.00,96.48
2319.00,96.51
2318.00,96.53
2317.00,96.54
2316.00,96.55
2315.00,96.55
2314.00,96.55
2313.00,96.55
2312.00,96.56
2311.00,96.56
2310.00,96.56
2309.00,96.56
2308.00,96.57
2307.00,96.57
2306.00,96.58
2305.00,96.58
2304.00,96.58
2303.00,96.58
2302.00,96.59
2301.00,96.60
2300.00,96.60
2299.00,96.60
2298.00,96.60
2297.00,96.60
2296.00,96.60
2295.00,96.59
2294.00,96.58
2293.00,96.57
2292.00,96.55
2291.00,96.54
2290.00,96.53
2289.00,96.52
2288.00,96.51
2287.00,96.50
2286.00,96.51
2285.00,96.52
2284.00,96.53
2283.00,96.54
2282.00,96.55
2281.00,96.55
2280.00,96.56
2279.00,96.57
2278.00,96.57
2277.00,96.58
2276.00,96.58
2275.00,96.59
2274.00,96.59
2273.00,96.59
2272.00,96.59
2271.00,96.59
2270.00,96.59
2269.00,96.60
2268.00,96.61
2267.00,96.62
2266.00,96.63
2265.00,96.64
2264.00,96.65
2263.00,96.65
2262.00,96.65
2261.00,96.64
2260.00,96.62
2259.00,96.61
2258.00,96.59
2257.00,96.59
2256.00,96.59
2255.00,96.60
2254.00,96.61
2253.00,96.62
2252.00,96.62
2251.00,96.63
2250.00,96.63
2249.00,96.64
2248.00,96.64
2247.00,96.64
2246.00,96.65
2245.00,96.65
2244.00,96.64
2243.00,96.64
2242.00,96.63
2241.00,96.62
2240.00,96.61
2239.00,96.61
2238.00,96.62
2237.00,96.63
2236.00,96.63
2235.00,96.63
2234.00,96.62
2233.00,96.62
2232.00,96.63
2231.00,96.65
2230.00,96.67
2229.00,96.67
2228.00,96.67
2227.00,96.65
2226.00,96.63
2225.00,96.62
2224.00,96.62
2223.00,96.64
2222.00,96.65
2221.00,96.67
2220.00,96.68
2219.00,96.69
2218.00,96.69
2217.00,96.68
2216.00,96.67
2215.00,96.66
2214.00,96.67
2213.00,96.69
2212.00,96.70
2211.00,96.70
2210.00,96.69
2209.00,96.68
2208.00,96.67
2207.00,96.67
2206.00,96.67
2205.00,96.68
2204.00,96.67
2203.00,96.66
2202.00,96.65
2201.00,96.65
2200.00,96.65
2199.00,96.67
2198.00,96.67
2197.00,96.66
2196.00,96.64
2195.00,96.63
2194.00,96.62
2193.00,96.61
2192.00,96.59
2191.00,96.58
2190.00,96.58
2189.00,96.59
2188.00,96.61
2187.00,96.61
2186.00,96.61
2185.00,96.61
2184.00,96.63
2183.00,96.67
2182.00,96.70
2181.00,96.72
2180.00,96.70
2179.00,96.68
2178.00,96.68
2177.00,96.70
2176.00,96.73
2175.00,96.76
2174.00,96.77
2173.00,96.75
2172.00,96.71
2171.00,96.66
2170.00,96.61
2169.00,96.55
2168.00,96.50
2167.00,96.49
2166.00,96.50
2165.00,96.53
2164.00,96.55
2163.00,96.55
2162.00,96.55
2161.00,96.56
2160.00,96.63
2159.00,96.75
2158.00,96.88
2157.00,96.95
2156.00,96.97
2155.00,96.94
2154.00,96.90
2153.00,96.87
2152.00,96.84
2151.00,96.83
2150.00,96.82
2149.00,96.79
2148.00,96.78
2147.00,96.78
2146.00,96.80
2145.00,96.84
2144.00,96.86
2143.00,96.88
2142.00,96.87
2141.00,96.85
2140.00,96.81
2139.00,96.77
2138.00,96.75
2137.00,96.76
2136.00,96.79
2135.00,96.84
2134.00,96.88
2133.00,96.89
2132.00,96.88
2131.00,96.86
2130.00,96.84
2129.00,96.82
2128.00,96.80
2127.00,96.79
2126.00,96.78
2125.00,96.77
2124.00,96.76
2123.00,96.75
2122.00,96.74
2121.00,96.73
2120.00,96.73
2119.00,96.73
2118.00,96.72
2117.00,96.70
2116.00,96.68
2115.00,96.66
2114.00,96.64
2113.00,96.63
2112.00,96.61
2111.00,96.61
2110.00,96.62
2109.00,96.64
2108.00,96.66
2107.00,96.68
2106.00,96.69
2105.00,96.69
2104.00,96.69
2103.00,96.69
2102.00,96.68
2101.00,96.66
2100.00,96.63
2099.00,96.60
2098.00,96.60
2097.00,96.61
2096.00,96.64
2095.00,96.68
2094.00,96.71
2093.00,96.72
2092.00,96.72
2091.00,96.72
2090.00,96.71
2089.00,96.69
2088.00,96.67
2087.00,96.66
2086.00,96.65
2085.00,96.64
2084.00,96.63
2083.00,96.63
2082.00,96.64
2081.00,96.65
2080.00,96.66
2079.00,96.66
2078.00,96.65
2077.00,96.65
2076.00,96.65
2075.00,96.67
2074.00,96.69
2073.00,96.68
2072.00,96.66
2071.00,96.64
2070.00,96.64
2069.00,96.66
2068.00,96.68
2067.00,96.70
2066.00,96.70
2065.00,96.69
2064.00,96.68
2063.00,96.68
2062.00,96.67
2061.00,96.66
2060.00,96.65
2059.00,96.65
2058.00,96.65
2057.00,96.66
2056.00,96.67
2055.00,96.68
2054.00,96.66
2053.00,96.62
2052.00,96.56
2051.00,96.51
2050.00,96.50
2049.00,96.53
2048.00,96.57
2047.00,96.61
2046.00,96.63
2045.00,96.64
2044.00,96.63
2043.00,96.63
2042.00,96.63
2041.00,96.62
2040.00,96.61
2039.00,96.58
2038.00,96.55
2037.00,96.52
2036.00,96.52
2035.00,96.56
2034.00,96.61
2033.00,96.65
2032.00,96.67
2031.00,96.67
2030.00,96.67
2029.00,96.68
2028.00,96.69
2027.00,96.72
2026.00,96.73
2025.00,96.73
2024.00,96.71
2023.00,96.70
2022.00,96.71
2021.00,96.73
2020.00,96.77
2019.00,96.80
2018.00,96.82
2017.00,96.81
2016.00,96.78
2015.00,96.75
2014.00,96.72
2013.00,96.69
2012.00,96.65
2011.00,96.64
2010.00,96.64
2009.00,96.68
2008.00,96.72
2007.00,96.77
2006.00,96.79
2005.00,96.78
2004.00,96.76
2003.00,96.76
2002.00,96.77
2001.00,96.79
2000.00,96.80
1999.00,96.82
1998.00,96.84
1997.00,96.84
1996.00,96.80
1995.00,96.75
1994.00,96.69
1993.00,96.67
1992.00,96.68
1991.00,96.71
1990.00,96.74
1989.00,96.75
1988.00,96.75
1987.00,96.74
1986.00,96.72
1985.00,96.70
1984.00,96.69
1983.00,96.68
1982.00,96.68
1981.00,96.67
1980.00,96.66
1979.00,96.65
1978.00,96.66
1977.00,96.68
1976.00,96.70
1975.00,96.72
1974.00,96.74
1973.00,96.77
1972.00,96.81
1971.00,96.84
1970.00,96.86
1969.00,96.84
1968.00,96.82
1967.00,96.81
1966.00,96.80
1965.00,96.79
1964.00,96.79
1963.00,96.81
1962.00,96.84
1961.00,96.87
1960.00,96.89
1959.00,96.90
1958.00,96.90
1957.00,96.89
1956.00,96.88
1955.00,96.87
1954.00,96.87
1953.00,96.86
1952.00,96.85
1951.00,96.86
1950.00,96.86
1949.00,96.87
1948.00,96.86
1947.00,96.86
1946.00,96.86
1945.00,96.87
1944.00,96.87
1943.00,96.86
1942.00,96.85
1941.00,96.83
1940.00,96.82
1939.00,96.82
1938.00,96.83
1937.00,96.83
1936.00,96.83
1935.00,96.83
1934.00,96.83
1933.00,96.84
1932.00,96.85
1931.00,96.86
1930.00,96.87
1929.00,96.87
1928.00,96.87
1927.00,96.86
1926.00,96.85
1925.00,96.84
1924.00,96.84
1923.00,96.84
1922.00,96.84
1921.00,96.83
1920.00,96.83
1919.00,96.84
1918.00,96.86
1917.00,96.87
1916.00,96.87
1915.00,96.86
1914.00,96.85
1913.00,96.84
1912.00,96.84
1911.00,96.86
1910.00,96.87
1909.00,96.88
1908.00,96.88
1907.00,96.87
1906.00,96.87
1905.00,96.88
1904.00,96.88
1903.00,96.88
1902.00,96.88
1901.00,96.89
1900.00,96.90
1899.00,96.91
1898.00,96.92
1897.00,96.91
1896.00,96.90
1895.00,96.88
1894.00,96.87
1893.00,96.87
1892.00,96.88
1891.00,96.90
1890.00,96.90
1889.00,96.89
1888.00,96.88
1887.00,96.88
1886.00,96.87
1885.00,96.87
1884.00,96.86
1883.00,96.86
1882.00,96.87
1881.00,96.87
1880.00,96.88
1879.00,96.88
1878.00,96.89
1877.00,96.90
1876.00,96.90
1875.00,96.91
1874.00,96.93
1873.00,96.93
1872.00,96.94
1871.00,96.94
1870.00,96.95
1869.00,96.94
1868.00,96.93
1867.00,96.93
1866.00,96.92
1865.00,96.92
1864.00,96.93
1863.00,96.93
1862.00,96.94
1861.00,96.95
1860.00,96.97
1859.00,96.98
1858.00,97.00
1857.00,97.00
1856.00,96.99
1855.00,96.98
1854.00,96.97
1853.00,96.97
1852.00,96.98
1851.00,96.99
1850.00,96.99
1849.00,97.00
1848.00,96.99
1847.00,96.99
1846.00,96.99
1845.00,97.00
1844.00,97.01
1843.00,97.01
1842.00,97.01
1841.00,97.00
1840.00,97.00
1839.00,97.00
1838.00,97.01
1837.00,97.01
1836.00,97.01
1835.00,97.02
1834.00,97.02
1833.00,97.02
1832.00,97.03
1831.00,97.03
1830.00,97.03
1829.00,97.03
1828.00,97.03
1827.00,97.03
1826.00,97.04
1825.00,97.04
1824.00,97.03
1823.00,97.03
1822.00,97.04
1821.00,97.05
1820.00,97.07
1819.00,97.09
1818.00,97.11
1817.00,97.12
1816.00,97.12
1815.00,97.11
1814.00,97.10
1813.00,97.09
1812.00,97.08
1811.00,97.07
1810.00,97.08
1809.00,97.08
1808.00,97.09
1807.00,97.09
1806.00,97.10
1805.00,97.10
1804.00,97.11
1803.00,97.11
1802.00,97.11
1801.00,97.10
1800.00,97.10
1799.00,97.09
1798.00,97.09
1797.00,97.10
1796.00,97.10
1795.00,97.10
1794.00,97.11
1793.00,97.12
1792.00,97.12
1791.00,97.12
1790.00,97.13
1789.00,97.13
1788.00,97.13
1787.00,97.14
1786.00,97.15
1785.00,97.15
1784.00,97.15
1783.00,97.15
1782.00,97.14
1781.00,97.14
1780.00,97.14
1779.00,97.15
1778.00,97.15
1777.00,97.16
1776.00,97.15
1775.00,97.15
1774.00,97.14
1773.00,97.14
1772.00,97.14
1771.00,97.14
1770.00,97.14
1769.00,97.14
1768.00,97.13
1767.00,97.12
1766.00,97.11
1765.00,97.10
1764.00,97.10
1763.00,97.10
1762.00,97.09
1761.00,97.08
1760.00,97.07
1759.00,97.05
1758.00,97.04
1757.00,97.02
1756.00,97.00
1755.00,96.97
1754.00,96.95
1753.00,96.92
1752.00,96.89
1751.00,96.84
1750.00,96.79
1749.00,96.73
1748.00,96.67
1747.00,96.62
1746.00,96.58
1745.00,96.52
1744.00,96.46
1743.00,96.40
1742.00,96.34
1741.00,96.30
1740.00,96.27
1739.00,96.26
1738.00,96.25
1737.00,96.25
1736.00,96.26
1735.00,96.28
1734.00,96.31
1733.00,96.34
1732.00,96.36
1731.00,96.37
1730.00,96.38
1729.00,96.40
1728.00,96.42
1727.00,96.44
1726.00,96.45
1725.00,96.47
1724.00,96.47
1723.00,96.48
1722.00,96.50
1721.00,96.52
1720.00,96.53
1719.00,96.55
1718.00,96.55
1717.00,96.55
1716.00,96.54
1715.00,96.55
1714.00,96.55
1713.00,96.56
1712.00,96.57
1711.00,96.58
1710.00,96.59
1709.00,96.60
1708.00,96.61
1707.00,96.62
1706.00,96.63
1705.00,96.64
1704.00,96.65
1703.00,96.65
1702.00,96.65
1701.00,96.68
1700.00,96.72
1699.00,96.74
1698.00,96.74
1697.00,96.74
1696.00,96.76
1695.00,96.78
1694.00,96.78
1693.00,96.76
1692.00,96.73
1691.00,96.71
1690.00,96.69
1689.00,96.66
1688.00,96.63
1687.00,96.60
1686.00,96.58
1685.00,96.54
1684.00,96.46
1683.00,96.37
1682.00,96.28
1681.00,96.18
1680.00,96.08
1679.00,95.98
1678.00,95.89
1677.00,95.79
1676.00,95.67
1675.00,95.53
1674.00,95.39
1673.00,95.25
1672.00,95.09
1671.00,94.92
1670.00,94.71
1669.00,94.46
1668.00,94.21
1667.00,93.98
1666.00,93.77
1665.00,93.54
1664.00,93.26
1663.00,92.93
1662.00,92.59
1661.00,92.26
1660.00,91.94
1659.00,91.62
1658.00,91.33
1657.00,91.05
1656.00,90.80
1655.00,90.53
1654.00,90.11
1653.00,89.47
1652.00,88.88
1651.00,88.48
1650.00,88.17
1649.00,87.85
1648.00,87.41
1647.00,86.84
1646.00,86.24
1645.00,85.73
1644.00,85.30
1643.00,84.90
1642.00,84.52
1641.00,84.14
1640.00,83.78
1639.00,83.46
1638.00,83.18
1637.00,82.91
1636.00,82.62
1635.00,82.38
1634.00,82.26
1633.00,82.25
1632.00,82.31
1631.00,82.43
1630.00,82.61
1629.00,82.83
1628.00,83.08
1627.00,83.33
1626.00,83.57
1625.00,83.82
1624.00,84.10
1623.00,84.40
1622.00,84.69
1621.00,84.96
1620.00,85.23
1619.00,85.52
1618.00,85.87
1617.00,86.27
1616.00,86.66
1615.00,86.99
1614.00,87.27
1613.00,87.54
1612.00,87.82
1611.00,88.10
1610.00,88.36
1609.00,88.60
1608.00,88.84
1607.00,89.07
1606.00,89.30
1605.00,89.54
1604.00,89.78
1603.00,90.02
1602.00,90.25
1601.00,90.48
1600.00,90.69
1599.00,90.88
1598.00,91.06
1597.00,91.23
1596.00,91.40
1595.00,91.56
1594.00,91.72
1593.00,91.86
1592.00,92.00
1591.00,92.13
1590.00,92.24
1589.00,92.33
1588.00,92.43
1587.00,92.52
1586.00,92.59
1585.00,92.65
1584.00,92.71
1583.00,92.76
1582.00,92.80
1581.00,92.83
1580.00,92.85
1579.00,92.88
1578.00,92.88
1577.00,92.85
1576.00,92.78
1575.00,92.69
1574.00,92.58
1573.00,92.47
1572.00,92.37
1571.00,92.25
1570.00,92.07
1569.00,91.86
1568.00,91.68
1567.00,91.52
1566.00,91.36
1565.00,91.18
1564.00,91.01
1563.00,90.87
1562.00,90.76
1561.00,90.66
1560.00,90.49
1559.00,90.16
1558.00,89.82
1557.00,89.61
1556.00,89.45
1555.00,89.29
1554.00,89.12
1553.00,88.94
1552.00,88.76
1551.00,88.58
1550.00,88.38
1549.00,88.16
1548.00,87.97
1547.00,87.79
1546.00,87.58
1545.00,87.32
1544.00,87.04
1543.00,86.77
1542.00,86.49
1541.00,86.09
1540.00,85.53
1539.00,84.94
1538.00,84.44
1537.00,84.03
1536.00,83.65
1535.00,83.21
1534.00,82.67
1533.00,82.11
1532.00,81.68
1531.00,81.40
1530.00,81.23
1529.00,81.12
1528.00,81.10
1527.00,81.14
1526.00,81.24
1525.00,81.41
1524.00,81.62
1523.00,81.88
1522.00,82.23
1521.00,82.63
1520.00,83.01
1519.00,83.33
1518.00,83.66
1517.00,84.02
1516.00,84.40
1515.00,84.74
1514.00,85.05
1513.00,85.36
1512.00,85.67
1511.00,85.96
1510.00,86.22
1509.00,86.47
1508.00,86.74
1507.00,87.05
1506.00,87.38
1505.00,87.65
1504.00,87.86
1503.00,88.04
1502.00,88.23
1501.00,88.44
1500.00,88.65
1499.00,88.86
1498.00,89.05
1497.00,89.24
1496.00,89.41
1495.00,89.56
1494.00,89.72
1493.00,89.87
1492.00,90.02
1491.00,90.17
1490.00,90.31
1489.00,90.43
1488.00,90.54
1487.00,90.64
1486.00,90.74
1485.00,90.80
1484.00,90.81
1483.00,90.77
1482.00,90.66
1481.00,90.47
1480.00,90.21
1479.00,89.91
1478.00,89.58
1477.00,89.22
1476.00,88.87
1475.00,88.62
1474.00,88.50
1473.00,88.53
1472.00,88.67
1471.00,88.82
1470.00,88.90
1469.00,88.89
1468.00,88.80
1467.00,88.62
1466.00,88.38
1465.00,88.14
1464.00,87.97
1463.00,87.94
1462.00,88.02
1461.00,88.17
1460.00,88.35
1459.00,88.53
1458.00,88.68
1457.00,88.80
1456.00,88.88
1455.00,88.97
1454.00,89.06
1453.00,89.16
1452.00,89.27
1451.00,89.38
1450.00,89.47
1449.00,89.55
1448.00,89.60
1447.00,89.63
1446.00,89.64
1445.00,89.65
1444.00,89.65
1443.00,89.64
1442.00,89.63
1441.00,89.61
1440.00,89.60
1439.00,89.61
1438.00,89.61
1437.00,89.60
1436.00,89.57
1435.00,89.56
1434.00,89.59
1433.00,89.64
1432.00,89.70
1431.00,89.77
1430.00,89.83
1429.00,89.88
1428.00,89.92
1427.00,89.95
1426.00,89.96
1425.00,89.93
1424.00,89.86
1423.00,89.76
1422.00,89.66
1421.00,89.53
1420.00,89.29
1419.00,88.93
1418.00,88.55
1417.00,88.30
1416.00,88.23
1415.00,88.30
1414.00,88.48
1413.00,88.72
1412.00,88.98
1411.00,89.23
1410.00,89.46
1409.00,89.66
1408.00,89.84
1407.00,89.99
1406.00,90.12
1405.00,90.23
1404.00,90.32
1403.00,90.40
1402.00,90.48
1401.00,90.55
1400.00,90.59
1399.00,90.62
1398.00,90.63
1397.00,90.63
1396.00,90.63
1395.00,90.62
1394.00,90.59
1393.00,90.56
1392.00,90.54
1391.00,90.52
1390.00,90.51
1389.00,90.48
1388.00,90.44
1387.00,90.39
1386.00,90.35
1385.00,90.34
1384.00,90.33
1383.00,90.32
1382.00,90.30
1381.00,90.26
1380.00,90.19
1379.00,90.10
1378.00,89.99
1377.00,89.86
1376.00,89.70
1375.00,89.50
1374.00,89.29
1373.00,89.09
1372.00,88.93
1371.00,88.82
1370.00,88.73
1369.00,88.67
1368.00,88.64
1367.00,88.62
1366.00,88.63
1365.00,88.66
1364.00,88.71
1363.00,88.76
1362.00,88.82
1361.00,88.90
1360.00,89.00
1359.00,89.09
1358.00,89.19
1357.00,89.28
1356.00,89.36
1355.00,89.43
1354.00,89.50
1353.00,89.57
1352.00,89.64
1351.00,89.71
1350.00,89.77
1349.00,89.83
1348.00,89.89
1347.00,89.95
1346.00,90.00
1345.00,90.04
1344.00,90.08
1343.00,90.12
1342.00,90.16
1341.00,90.19
1340.00,90.21
1339.00,90.23
1338.00,90.25
1337.00,90.29
1336.00,90.33
1335.00,90.36
1334.00,90.39
1333.00,90.41
1332.00,90.41
1331.00,90.41
1330.00,90.40
1329.00,90.40
1328.00,90.40
1327.00,90.41
1326.00,90.43
1325.00,90.44
1324.00,90.46
1323.00,90.48
1322.00,90.50
1321.00,90.52
1320.00,90.55
1319.00,90.58
1318.00,90.62
1317.00,90.67
1316.00,90.71
1315.00,90.76
1314.00,90.79
1313.00,90.82
1312.00,90.83
1311.00,90.84
1310.00,90.84
1309.00,90.83
1308.00,90.82
1307.00,90.80
1306.00,90.78
1305.00,90.77
1304.00,90.75
1303.00,90.74
1302.00,90.74
1301.00,90.76
1300.00,90.78
1299.00,90.81
1298.00,90.84
1297.00,90.87
1296.00,90.89
1295.00,90.90
1294.00,90.91
1293.00,90.91
1292.00,90.90
1291.00,90.87
1290.00,90.83
1289.00,90.78
1288.00,90.71
1287.00,90.61
1286.00,90.48
1285.00,90.32
1284.00,90.13
1283.00,89.91
1282.00,89.65
1281.00,89.36
1280.00,89.04
1279.00,88.69
1278.00,88.34
1277.00,88.00
1276.00,87.70
1275.00,87.43
1274.00,87.22
1273.00,87.05
1272.00,86.93
1271.00,86.86
1270.00,86.82
1269.00,86.81
1268.00,86.82
1267.00,86.85
1266.00,86.90
1265.00,86.96
1264.00,87.02
1263.00,87.11
1262.00,87.21
1261.00,87.32
1260.00,87.44
1259.00,87.57
1258.00,87.71
1257.00,87.85
1256.00,87.98
1255.00,88.10
1254.00,88.21
1253.00,88.32
1252.00,88.41
1251.00,88.49
1250.00,88.57
1249.00,88.64
1248.00,88.71
1247.00,88.78
1246.00,88.85
1245.00,88.91
1244.00,88.97
1243.00,89.02
1242.00,89.06
1241.00,89.10
1240.00,89.14
1239.00,89.17
1238.00,89.21
1237.00,89.25
1236.00,89.29
1235.00,89.34
1234.00,89.39
1233.00,89.46
1232.00,89.52
1231.00,89.59
1230.00,89.64
1229.00,89.67
1228.00,89.67
1227.00,89.65
1226.00,89.62
1225.00,89.59
1224.00,89.60
1223.00,89.65
1222.00,89.74
1221.00,89.87
1220.00,89.99
1219.00,90.10
1218.00,90.19
1217.00,90.26
1216.00,90.32
1215.00,90.36
1214.00,90.39
1213.00,90.41
1212.00,90.42
1211.00,90.41
1210.00,90.37
1209.00,90.31
1208.00,90.21
1207.00,90.07
1206.00,89.88
1205.00,89.64
1204.00,89.34
1203.00,88.96
1202.00,88.52
1201.00,88.03
1200.00,87.51
1199.00,87.03
1198.00,86.66
1197.00,86.44
1196.00,86.39
1195.00,86.51
1194.00,86.74
1193.00,87.04
1192.00,87.35
1191.00,87.65
1190.00,87.91
1189.00,88.12
1188.00,88.28
1187.00,88.39
1186.00,88.46
1185.00,88.48
1184.00,88.45
1183.00,88.39
1182.00,88.30
1181.00,88.21
1180.00,88.12
1179.00,88.07
1178.00,88.06
1177.00,88.11
1176.00,88.21
1175.00,88.34
1174.00,88.51
1173.00,88.67
1172.00,88.84
1171.00,88.99
1170.00,89.14
1169.00,89.27
1168.00,89.39
1167.00,89.50
1166.00,89.59
1165.00,89.68
1164.00,89.77
1163.00,89.84
1162.00,89.90
1161.00,89.96
1160.00,90.01
1159.00,90.05
1158.00,90.07
1157.00,90.08
1156.00,90.07
1155.00,90.05
1154.00,90.02
1153.00,89.99
1152.00,89.94
1151.00,89.88
1150.00,89.81
1149.00,89.75
1148.00,89.69
1147.00,89.65
1146.00,89.63
1145.00,89.62
1144.00,89.60
1143.00,89.57
1142.00,89.53
1141.00,89.48
1140.00,89.42
1139.00,89.38
1138.00,89.37
1137.00,89.39
1136.00,89.45
1135.00,89.53
1134.00,89.63
1133.00,89.73
1132.00,89.83
1131.00,89.90
1130.00,89.96
1129.00,90.00
1128.00,90.05
1127.00,90.09
1126.00,90.13
1125.00,90.18
1124.00,90.21
1123.00,90.24
1122.00,90.27
1121.00,90.29
1120.00,90.32
1119.00,90.35
1118.00,90.38
1117.00,90.41
1116.00,90.42
1115.00,90.43
1114.00,90.44
1113.00,90.44
1112.00,90.42
1111.00,90.39
1110.00,90.34
1109.00,90.29
1108.00,90.25
1107.00,90.23
1106.00,90.23
1105.00,90.24
1104.00,90.24
1103.00,90.24
1102.00,90.25
1101.00,90.27
1100.00,90.29
1099.00,90.31
1098.00,90.32
1097.00,90.32
1096.00,90.31
1095.00,90.29
1094.00,90.28
1093.00,90.28
1092.00,90.28
1091.00,90.28
1090.00,90.28
1089.00,90.30
1088.00,90.32
1087.00,90.35
1086.00,90.38
1085.00,90.42
1084.00,90.45
1083.00,90.49
1082.00,90.52
1081.00,90.55
1080.00,90.57
1079.00,90.59
1078.00,90.60
1077.00,90.61
1076.00,90.63
1075.00,90.64
1074.00,90.65
1073.00,90.65
1072.00,90.65
1071.00,90.63
1070.00,90.61
1069.00,90.59
1068.00,90.55
1067.00,90.52
1066.00,90.50
1065.00,90.48
1064.00,90.47
1063.00,90.46
1062.00,90.47
1061.00,90.48
1060.00,90.50
1059.00,90.52
1058.00,90.53
1057.00,90.55
1056.00,90.56
1055.00,90.57
1054.00,90.57
1053.00,90.58
1052.00,90.59
1051.00,90.59
1050.00,90.59
1049.00,90.57
1048.00,90.54
1047.00,90.51
1046.00,90.47
1045.00,90.43
1044.00,90.39
1043.00,90.34
1042.00,90.30
1041.00,90.28
1040.00,90.29
1039.00,90.30
1038.00,90.32
1037.00,90.35
1036.00,90.38
1035.00,90.42
1034.00,90.46
1033.00,90.50
1032.00,90.55
1031.00,90.60
1030.00,90.63
1029.00,90.67
1028.00,90.70
1027.00,90.73
1026.00,90.75
1025.00,90.78
1024.00,90.81
1023.00,90.84
1022.00,90.87
1021.00,90.88
1020.00,90.89
1019.00,90.89
1018.00,90.88
1017.00,90.88
1016.00,90.88
1015.00,90.88
1014.00,90.90
1013.00,90.92
1012.00,90.94
1011.00,90.96
1010.00,91.00
1009.00,91.04
1008.00,91.10
1007.00,91.17
1006.00,91.23
1005.00,91.28
1004.00,91.33
1003.00,91.37
1002.00,91.40
1001.00,91.43
1000.00,91.46
999.00,91.49
998.00,91.52
997.00,91.55
996.00,91.57
995.00,91.58
994.00,91.60
993.00,91.61
992.00,91.62
991.00,91.63
990.00,91.64
989.00,91.64
988.00,91.65
987.00,91.66
986.00,91.68
985.00,91.70
984.00,91.74
983.00,91.78
982.00,91.83
981.00,91.89
980.00,91.93
979.00,91.97
978.00,92.01
977.00,92.05
976.00,92.08
975.00,92.11
974.00,92.13
973.00,92.14
972.00,92.15
971.00,92.16
970.00,92.16
969.00,92.17
968.00,92.19
967.00,92.20
966.00,92.23
965.00,92.25
964.00,92.26
963.00,92.27
962.00,92.27
961.00,92.28
960.00,92.29
959.00,92.30
958.00,92.31
957.00,92.31
956.00,92.31
955.00,92.30
954.00,92.30
953.00,92.29
952.00,92.29
951.00,92.29
950.00,92.28
949.00,92.26
948.00,92.24
947.00,92.21
946.00,92.17
945.00,92.13
944.00,92.07
943.00,92.00
942.00,91.90
941.00,91.76
940.00,91.56
939.00,91.29
938.00,90.95
937.00,90.58
936.00,90.21
935.00,89.90
934.00,89.71
933.00,89.64
932.00,89.70
931.00,89.85
930.00,90.04
929.00,90.24
928.00,90.44
927.00,90.61
926.00,90.77
925.00,90.91
924.00,91.03
923.00,91.14
922.00,91.22
921.00,91.30
920.00,91.36
919.00,91.41
918.00,91.45
917.00,91.50
916.00,91.55
915.00,91.60
914.00,91.64
913.00,91.68
912.00,91.69
911.00,91.69
910.00,91.67
909.00,91.64
908.00,91.60
907.00,91.57
906.00,91.55
905.00,91.55
904.00,91.57
903.00,91.61
902.00,91.66
901.00,91.71
900.00,91.76
899.00,91.80
898.00,91.84
897.00,91.87
896.00,91.90
895.00,91.93
894.00,91.96
893.00,91.98
892.00,91.99
891.00,92.00
890.00,92.01
889.00,92.02
888.00,92.04
887.00,92.05
886.00,92.05
885.00,92.06
884.00,92.07
883.00,92.08
882.00,92.10
881.00,92.11
880.00,92.13
879.00,92.14
878.00,92.15
877.00,92.15
876.00,92.15
875.00,92.15
874.00,92.16
873.00,92.18
872.00,92.19
871.00,92.21
870.00,92.22
869.00,92.22
868.00,92.23
867.00,92.23
866.00,92.24
865.00,92.25
864.00,92.25
863.00,92.25
862.00,92.25
861.00,92.26
860.00,92.27
859.00,92.27
858.00,92.26
857.00,92.26
856.00,92.25
855.00,92.24
854.00,92.23
853.00,92.23
852.00,92.24
851.00,92.25
850.00,92.24
849.00,92.23
848.00,92.22
847.00,92.22
846.00,92.22
845.00,92.23
844.00,92.22
843.00,92.22
842.00,92.21
841.00,92.20
840.00,92.19
839.00,92.18
838.00,92.17
837.00,92.15
836.00,92.13
835.00,92.12
834.00,92.10
833.00,92.08
832.00,92.06
831.00,92.03
830.00,92.00
829.00,91.97
828.00,91.93
827.00,91.88
826.00,91.84
825.00,91.80
824.00,91.78
823.00,91.76
822.00,91.76
821.00,91.76
820.00,91.77
819.00,91.78
818.00,91.80
817.00,91.82
816.00,91.83
815.00,91.85
814.00,91.85
813.00,91.86
812.00,91.85
811.00,91.83
810.00,91.81
809.00,91.79
808.00,91.78
807.00,91.77
806.00,91.76
805.00,91.74
804.00,91.71
803.00,91.67
802.00,91.63
801.00,91.59
800.00,91.54
799.00,91.50
798.00,91.47
797.00,91.46
796.00,91.47
795.00,91.48
794.00,91.50
793.00,91.52
792.00,91.55
791.00,91.58
790.00,91.61
789.00,91.62
788.00,91.63
787.00,91.64
786.00,91.65
785.00,91.65
784.00,91.65
783.00,91.65
782.00,91.64
781.00,91.64
780.00,91.64
779.00,91.64
778.00,91.63
777.00,91.62
776.00,91.60
775.00,91.59
774.00,91.59
773.00,91.58
772.00,91.56
771.00,91.55
770.00,91.53
769.00,91.53
768.00,91.52
767.00,91.51
766.00,91.50
765.00,91.48
764.00,91.46
763.00,91.43
762.00,91.40
761.00,91.37
760.00,91.34
759.00,91.32
758.00,91.30
757.00,91.29
756.00,91.27
755.00,91.24
754.00,91.22
753.00,91.20
752.00,91.18
751.00,91.17
750.00,91.16
749.00,91.16
748.00,91.15
747.00,91.13
746.00,91.11
745.00,91.08
744.00,91.05
743.00,91.02
742.00,90.98
741.00,90.92
740.00,90.83
739.00,90.71
738.00,90.57
737.00,90.42
736.00,90.25
735.00,90.07
734.00,89.87
733.00,89.67
732.00,89.46
731.00,89.26
730.00,89.09
729.00,88.97
728.00,88.90
727.00,88.88
726.00,88.87
725.00,88.87
724.00,88.87
723.00,88.86
722.00,88.86
721.00,88.85
720.00,88.84
719.00,88.82
718.00,88.80
717.00,88.78
716.00,88.77
715.00,88.75
714.00,88.74
713.00,88.72
712.00,88.70
711.00,88.68
710.00,88.65
709.00,88.62
708.00,88.58
707.00,88.53
706.00,88.48
705.00,88.41
704.00,88.32
703.00,88.22
702.00,88.12
701.00,88.03
700.00,87.93
699.00,87.81
698.00,87.66
697.00,87.49
696.00,87.31
695.00,87.14
694.00,86.97
693.00,86.81
692.00,86.67
691.00,86.54
690.00,86.42
689.00,86.31
688.00,86.22
687.00,86.15
686.00,86.11
685.00,86.07
684.00,86.05
683.00,86.04
682.00,86.04
681.00,86.05
680.00,86.09
679.00,86.12
678.00,86.16
677.00,86.20
676.00,86.24
675.00,86.30
674.00,86.37
673.00,86.46
672.00,86.57
671.00,86.69
670.00,86.84
669.00,87.04
668.00,87.20
667.00,87.23
666.00,87.19
665.00,87.16
664.00,87.16
663.00,87.20
662.00,87.26
661.00,87.33
660.00,87.39
659.00,87.45
658.00,87.51
657.00,87.57
656.00,87.61
655.00,87.66
654.00,87.71
653.00,87.76
652.00,87.82
651.00,87.89
650.00,87.98
649.00,88.05
648.00,88.11
647.00,88.15
646.00,88.17
645.00,88.20
644.00,88.23
643.00,88.27
642.00,88.31
641.00,88.34
640.00,88.38
639.00,88.40
638.00,88.43
637.00,88.44
636.00,88.45
635.00,88.47
634.00,88.47
633.00,88.47
632.00,88.47
631.00,88.47
630.00,88.48
629.00,88.49
628.00,88.49
627.00,88.47
626.00,88.44
625.00,88.43
624.00,88.43
623.00,88.45
622.00,88.48
621.00,88.49
620.00,88.50
619.00,88.49
618.00,88.47
617.00,88.46
616.00,88.43
615.00,88.42
614.00,88.43
613.00,88.45
612.00,88.48
611.00,88.50
610.00,88.50
609.00,88.49
608.00,88.48
607.00,88.45
606.00,88.43
605.00,88.42
604.00,88.42
603.00,88.42
602.00,88.42
601.00,88.41
600.00,88.38
599.00,88.36
598.00,88.33
597.00,88.30
596.00,88.26
595.00,88.22
594.00,88.17
593.00,88.12
592.00,88.06
591.00,87.98
590.00,87.87
589.00,87.74
588.00,87.59
587.00,87.41
586.00,87.21
585.00,87.00
584.00,86.76
583.00,86.52
582.00,86.28
581.00,86.06
580.00,85.89
579.00,85.77
578.00,85.72
577.00,85.73
576.00,85.79
575.00,85.89
574.00,86.01
573.00,86.13
572.00,86.25
571.00,86.37
570.00,86.49
569.00,86.61
568.00,86.69
567.00,86.75
566.00,86.82
565.00,86.90
564.00,87.01
563.00,87.14
562.00,87.28
561.00,87.39
560.00,87.46
559.00,87.50
558.00,87.52
557.00,87.55
556.00,87.59
555.00,87.65
554.00,87.69
553.00,87.73
552.00,87.76
551.00,87.80
550.00,87.86
549.00,87.93
548.00,88.01
547.00,88.06
546.00,88.10
545.00,88.13
544.00,88.17
543.00,88.21
542.00,88.23
541.00,88.22
540.00,88.17
539.00,88.09
538.00,87.98
537.00,87.86
536.00,87.76
535.00,87.71
534.00,87.70
533.00,87.72
532.00,87.75
531.00,87.75
530.00,87.73
529.00,87.71
528.00,87.69
527.00,87.70
526.00,87.73
525.00,87.77
524.00,87.81
523.00,87.86
522.00,87.92
521.00,87.95
520.00,87.94
519.00,87.88
518.00,87.81
517.00,87.74
516.00,87.71
515.00,87.73
514.00,87.76
513.00,87.78
512.00,87.77
511.00,87.75
510.00,87.73
509.00,87.72
508.00,87.71
507.00,87.70
506.00,87.72
505.00,87.78
504.00,87.84
503.00,87.91
502.00,87.95
501.00,87.98
500.00,87.99
499.00,87.99
498.00,88.02
497.00,88.07
496.00,88.13
495.00,88.19
494.00,88.27
493.00,88.36
492.00,88.43
491.00,88.48
490.00,88.50
489.00,88.53
488.00,88.57
487.00,88.61
486.00,88.66
485.00,88.75
484.00,88.86
483.00,88.95
482.00,88.98
481.00,88.97
480.00,88.95
479.00,88.95
478.00,88.97
477.00,88.99
476.00,89.03
475.00,89.08
474.00,89.13
473.00,89.17
472.00,89.18
471.00,89.17
470.00,89.15
469.00,89.13
468.00,89.14
467.00,89.17
466.00,89.21
465.00,89.24
464.00,89.27
463.00,89.27
462.00,89.23
461.00,89.16
460.00,89.09
459.00,89.07
458.00,89.07
457.00,89.07
456.00,89.06
455.00,89.05
454.00,89.05
453.00,89.05
452.00,89.05
451.00,89.05
450.00,89.06
449.00,89.09
448.00,89.14
447.00,89.23
446.00,89.34
445.00,89.44
444.00,89.53
443.00,89.59
442.00,89.63
441.00,89.69
440.00,89.79
439.00,89.88
438.00,89.93
437.00,89.94
436.00,89.94
435.00,90.00
434.00,90.11
433.00,90.24
432.00,90.34
431.00,90.39
430.00,90.35
429.00,90.29
428.00,90.27
427.00,90.36
426.00,90.54
425.00,90.77
424.00,90.94
423.00,91.00
422.00,90.99
421.00,91.01
420.00,91.17
419.00,91.39
418.00,91.46
417.00,91.31
416.00,91.04
415.00,90.74
414.00,90.43
413.00,90.09
412.00,89.74
411.00,89.41
410.00,89.10
409.00,88.74
408.00,88.27
407.00,87.69
406.00,87.08
405.00,86.63
404.00,86.48
403.00,86.56
402.00,86.60
401.00,86.28
400.00,85.59
