Created as New Dataset,Sample 717 By Administrator Date Tuesday, September 15 2026
cm-1,%T
4000.00,98.90
3999.00,98.90
3998.00,98.90
3997.00,98.89
3996.00,98.89
3995.00,98.89
3994.00,98.89
3993.00,98.89
3992.00,98.89
3991.00,98.90
3990.00,98.90
3989.00,98.91
3988.00,98.91
3987.00,98.91
3986.00,98.90
3985.00,98.90
3984.00,98.90
3983.00,98.89
3982.00,98.89
3981.00,98.89
3980.00,98.89
3979.00,98.89
3978.00,98.89
3977.00,98.90
3976.00,98.90
3975.00,98.91
3974.00,98.91
3973.00,98.91
3972.00,98.91
3971.00,98.91
3970.00,98.91
3969.00,98.90
3968.00,98.90
3967.00,98.90
3966.00,98.90
3965.00,98.89
3964.00,98.89
3963.00,98.90
3962.00,98.90
3961.00,98.90
3960.00,98.91
3959.00,98.91
3958.00,98.91
3957.00,98.91
3956.00,98.91
3955.00,98.91
3954.00,98.91
3953.00,98.91
3952.00,98.92
3951.00,98.93
3950.00,98.93
3949.00,98.93
3948.00,98.93
3947.00,98.93
3946.00,98.92
3945.00,98.92
3944.00,98.92
3943.00,98.92
3942.00,98.92
3941.00,98.92
3940.00,98.92
3939.00,98.92
3938.00,98.92
3937.00,98.91
3936.00,98.91
3935.00,98.91
3934.00,98.91
3933.00,98.91
3932.00,98.91
3931.00,98.91
3930.00,98.91
3929.00,98.91
3928.00,98.92
3927.00,98.92
3926.00,98.92
3925.00,98.93
3924.00,98.93
3923.00,98.93
3922.00,98.93
3921.00,98.92
3920.00,98.92
3919.00,98.92
3918.00,98.91
3917.00,98.92
3916.00,98.92
3915.00,98.92
3914.00,98.92
3913.00,98.93
3912.00,98.93
3911.00,98.93
3910.00,98.94
3909.00,98.94
3908.00,98.94
3907.00,98.94
3906.00,98.95
3905.00,98.95
3904.00,98.96
3903.00,98.97
3902.00,98.97
3901.00,98.98
3900.00,98.98
3899.00,98.98
3898.00,98.97
3897.00,98.97
3896.00,98.97
3895.00,98.97
3894.00,98.97
3893.00,98.96
3892.00,98.96
3891.00,98.96
3890.00,98.96
3889.00,98.96
3888.00,98.96
3887.00,98.96
3886.00,98.96
3885.00,98.97
3884.00,98.97
3883.00,98.98
3882.00,98.98
3881.00,98.98
3880.00,98.97
3879.00,98.97
3878.00,98.97
3877.00,98.97
3876.00,98.97
3875.00,98.96
3874.00,98.96
3873.00,98.96
3872.00,98.97
3871.00,98.97
3870.00,98.98
3869.00,98.98
3868.00,98.99
3867.00,98.99
3866.00,98.98
3865.00,98.98
3864.00,98.97
3863.00,98.97
3862.00,98.97
3861.00,98.97
3860.00,98.97
3859.00,98.97
3858.00,98.97
3857.00,98.98
3856.00,98.98
3855.00,98.98
3854.00,98.98
3853.00,98.98
3852.00,98.99
3851.00,98.99
3850.00,98.99
3849.00,98.99
3848.00,98.99
3847.00,98.99
3846.00,98.99
3845.00,98.99
3844.00,98.99
3843.00,98.98
3842.00,98.98
3841.00,98.98
3840.00,98.98
3839.00,98.98
3838.00,98.98
3837.00,98.99
3836.00,98.99
3835.00,98.99
3834.00,98.99
3833.00,98.99
3832.00,99.00
3831.00,99.00
3830.00,99.01
3829.00,99.01
3828.00,99.01
3827.00,99.01
3826.00,99.00
3825.00,99.00
3824.00,98.99
3823.00,98.98
3822.00,98.97
3821.00,98.96
3820.00,98.97
3819.00,98.97
3818.00,98.98
3817.00,98.97
3816.00,98.97
3815.00,98.97
3814.00,98.97
3813.00,98.97
3812.00,98.97
3811.00,98.97
3810.00,98.97
3809.00,98.97
3808.00,98.96
3807.00,98.96
3806.00,98.97
3805.00,98.97
3804.00,98.98
3803.00,98.97
3802.00,98.97
3801.00,98.96
3800.00,98.96
3799.00,98.97
3798.00,98.98
3797.00,98.98
3796.00,98.99
3795.00,98.99
3794.00,98.98
3793.00,98.98
3792.00,98.97
3791.00,98.96
3790.00,98.96
3789.00,98.96
3788.00,98.97
3787.00,98.97
3786.00,98.97
3785.00,98.98
3784.00,98.98
3783.00,98.98
3782.00,98.98
3781.00,98.99
3780.00,98.99
3779.00,99.00
3778.00,98.99
3777.00,98.99
3776.00,98.98
3775.00,98.97
3774.00,98.97
3773.00,98.96
3772.00,98.96
3771.00,98.95
3770.00,98.96
3769.00,98.97
3768.00,98.97
3767.00,98.98
3766.00,98.98
3765.00,98.97
3764.00,98.97
3763.00,98.96
3762.00,98.96
3761.00,98.95
3760.00,98.95
3759.00,98.95
3758.00,98.96
3757.00,98.97
3756.00,98.97
3755.00,98.98
3754.00,98.98
3753.00,98.99
3752.00,98.99
3751.00,98.99
3750.00,98.98
3749.00,98.97
3748.00,98.97
3747.00,98.98
3746.00,98.99
3745.00,99.00
3744.00,99.01
3743.00,99.01
3742.00,99.00
3741.00,99.00
3740.00,98.99
3739.00,98.99
3738.00,98.98
3737.00,98.99
3736.00,99.00
3735.00,99.01
3734.00,99.02
3733.00,99.02
3732.00,99.02
3731.00,99.02
3730.00,99.02
3729.00,99.02
3728.00,99.01
3727.00,99.01
3726.00,99.00
3725.00,99.00
3724.00,99.00
3723.00,99.00
3722.00,99.00
3721.00,99.00
3720.00,99.00
3719.00,99.00
3718.00,99.01
3717.00,99.01
3716.00,99.02
3715.00,99.01
3714.00,99.01
3713.00,99.00
3712.00,99.00
3711.00,99.00
3710.00,99.01
3709.00,99.02
3708.00,99.03
3707.00,99.03
3706.00,99.02
3705.00,99.02
3704.00,99.01
3703.00,99.00
3702.00,98.99
3701.00,98.99
3700.00,98.98
3699.00,98.97
3698.00,98.96
3697.00,98.95
3696.00,98.94
3695.00,98.94
3694.00,98.93
3693.00,98.93
3692.00,98.92
3691.00,98.91
3690.00,98.90
3689.00,98.88
3688.00,98.87
3687.00,98.85
3686.00,98.84
3685.00,98.83
3684.00,98.83
3683.00,98.82
3682.00,98.81
3681.00,98.81
3680.00,98.81
3679.00,98.81
3678.00,98.81
3677.00,98.82
3676.00,98.81
3675.00,98.81
3674.00,98.80
3673.00,98.79
3672.00,98.78
3671.00,98.77
3670.00,98.76
3669.00,98.76
3668.00,98.75
3667.00,98.74
3666.00,98.73
3665.00,98.71
3664.00,98.70
3663.00,98.68
3662.00,98.66
3661.00,98.65
3660.00,98.64
3659.00,98.64
3658.00,98.63
3657.00,98.62
3656.00,98.61
3655.00,98.60
3654.00,98.59
3653.00,98.58
3652.00,98.57
3651.00,98.56
3650.00,98.55
3649.00,98.53
3648.00,98.52
3647.00,98.52
3646.00,98.51
3645.00,98.51
3644.00,98.50
3643.00,98.49
3642.00,98.49
3641.00,98.49
3640.00,98.49
3639.00,98.48
3638.00,98.47
3637.00,98.45
3636.00,98.44
3635.00,98.43
3634.00,98.42
3633.00,98.43
3632.00,98.44
3631.00,98.44
3630.00,98.44
3629.00,98.44
3628.00,98.44
3627.00,98.44
3626.00,98.45
3625.00,98.46
3624.00,98.47
3623.00,98.47
3622.00,98.48
3621.00,98.49
3620.00,98.49
3619.00,98.49
3618.00,98.50
3617.00,98.50
3616.00,98.50
3615.00,98.50
3614.00,98.50
3613.00,98.50
3612.00,98.51
3611.00,98.51
3610.00,98.52
3609.00,98.52
3608.00,98.53
3607.00,98.54
3606.00,98.55
3605.00,98.56
3604.00,98.57
3603.00,98.58
3602.00,98.59
3601.00,98.59
3600.00,98.59
3599.00,98.59
3598.00,98.59
3597.00,98.59
3596.00,98.59
3595.00,98.59
3594.00,98.58
3593.00,98.58
3592.00,98.58
3591.00,98.59
3590.00,98.59
3589.00,98.60
3588.00,98.59
3587.00,98.59
3586.00,98.59
3585.00,98.59
3584.00,98.59
3583.00,98.58
3582.00,98.56
3581.00,98.55
3580.00,98.54
3579.00,98.53
3578.00,98.52
3577.00,98.52
3576.00,98.52
3575.00,98.52
3574.00,98.51
3573.00,98.51
3572.00,98.50
3571.00,98.50
3570.00,98.49
3569.00,98.49
3568.00,98.48
3567.00,98.47
3566.00,98.46
3565.00,98.45
3564.00,98.43
3563.00,98.41
3562.00,98.40
3561.00,98.40
3560.00,98.39
3559.00,98.39
3558.00,98.38
3557.00,98.38
3556.00,98.37
3555.00,98.37
3554.00,98.37
3553.00,98.38
3552.00,98.39
3551.00,98.39
3550.00,98.39
3549.00,98.39
3548.00,98.39
3547.00,98.39
3546.00,98.40
3545.00,98.41
3544.00,98.41
3543.00,98.41
3542.00,98.42
3541.00,98.42
3540.00,98.42
3539.00,98.43
3538.00,98.43
3537.00,98.43
3536.00,98.44
3535.00,98.44
3534.00,98.44
3533.00,98.44
3532.00,98.45
3531.00,98.45
3530.00,98.45
3529.00,98.46
3528.00,98.46
3527.00,98.47
3526.00,98.48
3525.00,98.50
3524.00,98.51
3523.00,98.52
3522.00,98.52
3521.00,98.53
3520.00,98.53
3519.00,98.54
3518.00,98.55
3517.00,98.55
3516.00,98.54
3515.00,98.54
3514.00,98.54
3513.00,98.55
3512.00,98.56
3511.00,98.56
3510.00,98.56
3509.00,98.56
3508.00,98.57
3507.00,98.57
3506.00,98.58
3505.00,98.58
3504.00,98.58
3503.00,98.58
3502.00,98.58
3501.00,98.58
3500.00,98.59
3499.00,98.60
3498.00,98.60
3497.00,98.60
3496.00,98.60
3495.00,98.59
3494.00,98.59
3493.00,98.58
3492.00,98.58
3491.00,98.58
3490.00,98.58
3489.00,98.59
3488.00,98.59
3487.00,98.58
3486.00,98.57
3485.00,98.57
3484.00,98.57
3483.00,98.57
3482.00,98.58
3481.00,98.59
3480.00,98.58
3479.00,98.57
3478.00,98.55
3477.00,98.53
3476.00,98.51
3475.00,98.51
3474.00,98.51
3473.00,98.51
3472.00,98.53
3471.00,98.54
3470.00,98.55
3469.00,98.55
3468.00,98.54
3467.00,98.51
3466.00,98.47
3465.00,98.43
3464.00,98.40
3463.00,98.39
3462.00,98.38
3461.00,98.37
3460.00,98.35
3459.00,98.32
3458.00,98.28
3457.00,98.24
3456.00,98.21
3455.00,98.18
3454.00,98.16
3453.00,98.14
3452.00,98.12
3451.00,98.11
3450.00,98.09
3449.00,98.08
3448.00,98.05
3447.00,98.02
3446.00,97.98
3445.00,97.94
3444.00,97.91
3443.00,97.89
3442.00,97.87
3441.00,97.87
3440.00,97.88
3439.00,97.90
3438.00,97.92
3437.00,97.93
3436.00,97.90
3435.00,97.86
3434.00,97.82
3433.00,97.79
3432.00,97.78
3431.00,97.77
3430.00,97.77
3429.00,97.76
3428.00,97.75
3427.00,97.74
3426.00,97.74
3425.00,97.75
3424.00,97.78
3423.00,97.82
3422.00,97.86
3421.00,97.90
3420.00,97.94
3419.00,97.97
3418.00,98.00
3417.00,98.04
3416.00,98.10
3415.00,98.16
3414.00,98.22
3413.00,98.26
3412.00,98.30
3411.00,98.32
3410.00,98.34
3409.00,98.35
3408.00,98.36
3407.00,98.37
3406.00,98.38
3405.00,98.42
3404.00,98.47
3403.00,98.52
3402.00,98.56
3401.00,98.58
3400.00,98.58
3399.00,98.57
3398.00,98.56
3397.00,98.56
3396.00,98.57
3395.00,98.58
3394.00,98.60
3393.00,98.62
3392.00,98.62
3391.00,98.62
3390.00,98.60
3389.00,98.59
3388.00,98.58
3387.00,98.58
3386.00,98.59
3385.00,98.59
3384.00,98.60
3383.00,98.61
3382.00,98.62
3381.00,98.63
3380.00,98.63
3379.00,98.64
3378.00,98.64
3377.00,98.65
3376.00,98.66
3375.00,98.66
3374.00,98.67
3373.00,98.68
3372.00,98.69
3371.00,98.70
3370.00,98.71
3369.00,98.72
3368.00,98.71
3367.00,98.70
3366.00,98.68
3365.00,98.67
3364.00,98.66
3363.00,98.66
3362.00,98.66
3361.00,98.67
3360.00,98.66
3359.00,98.66
3358.00,98.65
3357.00,98.64
3356.00,98.63
3355.00,98.63
3354.00,98.64
3353.00,98.65
3352.00,98.66
3351.00,98.66
3350.00,98.65
3349.00,98.64
3348.00,98.63
3347.00,98.62
3346.00,98.62
3345.00,98.62
3344.00,98.62
3343.00,98.62
3342.00,98.62
3341.00,98.61
3340.00,98.61
3339.00,98.61
3338.00,98.61
3337.00,98.60
3336.00,98.60
3335.00,98.59
3334.00,98.59
3333.00,98.59
3332.00,98.59
3331.00,98.60
3330.00,98.61
3329.00,98.63
3328.00,98.64
3327.00,98.64
3326.00,98.64
3325.00,98.65
3324.00,98.65
3323.00,98.66
3322.00,98.66
3321.00,98.66
3320.00,98.66
3319.00,98.66
3318.00,98.67
3317.00,98.67
3316.00,98.68
3315.00,98.68
3314.00,98.68
3313.00,98.68
3312.00,98.68
3311.00,98.69
3310.00,98.69
3309.00,98.69
3308.00,98.69
3307.00,98.69
3306.00,98.69
3305.00,98.68
3304.00,98.68
3303.00,98.67
3302.00,98.67
3301.00,98.67
3300.00,98.66
3299.00,98.66
3298.00,98.67
3297.00,98.67
3296.00,98.67
3295.00,98.68
3294.00,98.68
3293.00,98.69
3292.00,98.69
3291.00,98.70
3290.00,98.69
3289.00,98.69
3288.00,98.69
3287.00,98.69
3286.00,98.69
3285.00,98.70
3284.00,98.70
3283.00,98.70
3282.00,98.69
3281.00,98.69
3280.00,98.69
3279.00,98.70
3278.00,98.70
3277.00,98.70
3276.00,98.71
3275.00,98.71
3274.00,98.72
3273.00,98.73
3272.00,98.74
3271.00,98.74
3270.00,98.74
3269.00,98.73
3268.00,98.72
3267.00,98.72
3266.00,98.72
3265.00,98.72
3264.00,98.72
3263.00,98.72
3262.00,98.72
3261.00,98.72
3260.00,98.72
3259.00,98.72
3258.00,98.72
3257.00,98.72
3256.00,98.73
3255.00,98.73
3254.00,98.72
3253.00,98.72
3252.00,98.72
3251.00,98.72
3250.00,98.72
3249.00,98.73
3248.00,98.73
3247.00,98.73
3246.00,98.73
3245.00,98.72
3244.00,98.72
3243.00,98.71
3242.00,98.71
3241.00,98.70
3240.00,98.71
3239.00,98.71
3238.00,98.71
3237.00,98.72
3236.00,98.72
3235.00,98.72
3234.00,98.72
3233.00,98.71
3232.00,98.70
3231.00,98.70
3230.00,98.70
3229.00,98.70
3228.00,98.70
3227.00,98.70
3226.00,98.70
3225.00,98.71
3224.00,98.72
3223.00,98.72
3222.00,98.73
3221.00,98.73
3220.00,98.73
3219.00,98.73
3218.00,98.73
3217.00,98.73
3216.00,98.73
3215.00,98.73
3214.00,98.73
3213.00,98.73
3212.00,98.74
3211.00,98.74
3210.00,98.74
3209.00,98.75
3208.00,98.75
3207.00,98.75
3206.00,98.75
3205.00,98.75
3204.00,98.75
3203.00,98.75
3202.00,98.74
3201.00,98.74
3200.00,98.73
3199.00,98.73
3198.00,98.73
3197.00,98.73
3196.00,98.73
3195.00,98.73
3194.00,98.74
3193.00,98.73
3192.00,98.73
3191.00,98.72
3190.00,98.71
3189.00,98.71
3188.00,98.71
3187.00,98.71
3186.00,98.71
3185.00,98.71
3184.00,98.71
3183.00,98.71
3182.00,98.70
3181.00,98.71
3180.00,98.71
3179.00,98.72
3178.00,98.72
3177.00,98.72
3176.00,98.71
3175.00,98.71
3174.00,98.71
3173.00,98.72
3172.00,98.73
3171.00,98.73
3170.00,98.73
3169.00,98.73
3168.00,98.72
3167.00,98.71
3166.00,98.70
3165.00,98.70
3164.00,98.69
3163.00,98.68
3162.00,98.68
3161.00,98.67
3160.00,98.67
3159.00,98.67
3158.00,98.67
3157.00,98.67
3156.00,98.67
3155.00,98.67
3154.00,98.67
3153.00,98.67
3152.00,98.67
3151.00,98.66
3150.00,98.65
3149.00,98.65
3148.00,98.64
3147.00,98.64
3146.00,98.64
3145.00,98.63
3144.00,98.63
3143.00,98.63
3142.00,98.62
3141.00,98.62
3140.00,98.61
3139.00,98.60
3138.00,98.59
3137.00,98.57
3136.00,98.56
3135.00,98.55
3134.00,98.53
3133.00,98.52
3132.00,98.51
3131.00,98.50
3130.00,98.49
3129.00,98.48
3128.00,98.47
3127.00,98.47
3126.00,98.46
3125.00,98.46
3124.00,98.47
3123.00,98.47
3122.00,98.48
3121.00,98.48
3120.00,98.48
3119.00,98.48
3118.00,98.48
3117.00,98.47
3116.00,98.46
3115.00,98.44
3114.00,98.42
3113.00,98.39
3112.00,98.37
3111.00,98.34
3110.00,98.31
3109.00,98.28
3108.00,98.25
3107.00,98.23
3106.00,98.22
3105.00,98.20
3104.00,98.20
3103.00,98.19
3102.00,98.19
3101.00,98.19
3100.00,98.20
3099.00,98.21
3098.00,98.23
3097.00,98.25
3096.00,98.26
3095.00,98.27
3094.00,98.27
3093.00,98.27
3092.00,98.26
3091.00,98.25
3090.00,98.23
3089.00,98.20
3088.00,98.17
3087.00,98.14
3086.00,98.11
3085.00,98.09
3084.00,98.07
3083.00,98.05
3082.00,98.04
3081.00,98.03
3080.00,98.02
3079.00,98.02
3078.00,98.02
3077.00,98.02
3076.00,98.02
3075.00,98.01
3074.00,98.01
3073.00,98.00
3072.00,97.99
3071.00,97.98
3070.00,97.97
3069.00,97.96
3068.00,97.96
3067.00,97.97
3066.00,97.97
3065.00,97.98
3064.00,97.98
3063.00,97.99
3062.00,97.99
3061.00,97.98
3060.00,97.97
3059.00,97.95
3058.00,97.93
3057.00,97.91
3056.00,97.89
3055.00,97.87
3054.00,97.87
3053.00,97.88
3052.00,97.91
3051.00,97.95
3050.00,98.01
3049.00,98.07
3048.00,98.13
3047.00,98.19
3046.00,98.24
3045.00,98.29
3044.00,98.33
3043.00,98.36
3042.00,98.38
3041.00,98.39
3040.00,98.40
3039.00,98.41
3038.00,98.41
3037.00,98.42
3036.00,98.42
3035.00,98.41
3034.00,98.40
3033.00,98.39
3032.00,98.37
3031.00,98.35
3030.00,98.32
3029.00,98.30
3028.00,98.28
3027.00,98.26
3026.00,98.24
3025.00,98.21
3024.00,98.17
3023.00,98.13
3022.00,98.08
3021.00,98.04
3020.00,97.98
3019.00,97.93
3018.00,97.87
3017.00,97.82
3016.00,97.77
3015.00,97.72
3014.00,97.67
3013.00,97.63
3012.00,97.58
3011.00,97.54
3010.00,97.48
3009.00,97.43
3008.00,97.39
3007.00,97.35
3006.00,97.32
3005.00,97.29
3004.00,97.27
3003.00,97.25
3002.00,97.22
3001.00,97.20
3000.00,97.17
2999.00,97.14
2998.00,97.12
2997.00,97.09
2996.00,97.06
2995.00,97.02
2994.00,96.99
2993.00,96.95
2992.00,96.91
2991.00,96.85
2990.00,96.80
2989.00,96.74
2988.00,96.67
2987.00,96.59
2986.00,96.51
2985.00,96.42
2984.00,96.32
2983.00,96.22
2982.00,96.11
2981.00,95.99
2980.00,95.88
2979.00,95.76
2978.00,95.64
2977.00,95.51
2976.00,95.39
2975.00,95.27
2974.00,95.16
2973.00,95.07
2972.00,94.99
2971.00,94.94
2970.00,94.91
2969.00,94.89
2968.00,94.90
2967.00,94.92
2966.00,94.95
2965.00,94.99
2964.00,95.04
2963.00,95.09
2962.00,95.15
2961.00,95.21
2960.00,95.28
2959.00,95.36
2958.00,95.45
2957.00,95.55
2956.00,95.65
2955.00,95.76
2954.00,95.88
2953.00,95.99
2952.00,96.11
2951.00,96.22
2950.00,96.33
2949.00,96.45
2948.00,96.57
2947.00,96.68
2946.00,96.79
2945.00,96.89
2944.00,96.98
2943.00,97.06
2942.00,97.13
2941.00,97.19
2940.00,97.25
2939.00,97.30
2938.00,97.34
2937.00,97.38
2936.00,97.41
2935.00,97.43
2934.00,97.45
2933.00,97.47
2932.00,97.49
2931.00,97.49
2930.00,97.50
2929.00,97.49
2928.00,97.48
2927.00,97.47
2926.00,97.45
2925.00,97.43
2924.00,97.41
2923.00,97.38
2922.00,97.35
2921.00,97.31
2920.00,97.27
2919.00,97.22
2918.00,97.17
2917.00,97.12
2916.00,97.05
2915.00,96.99
2914.00,96.93
2913.00,96.87
2912.00,96.81
2911.00,96.75
2910.00,96.69
2909.00,96.66
2908.00,96.65
2907.00,96.66
2906.00,96.70
2905.00,96.76
2904.00,96.84
2903.00,96.92
2902.00,97.00
2901.00,97.08
2900.00,97.14
2899.00,97.20
2898.00,97.25
2897.00,97.28
2896.00,97.31
2895.00,97.33
2894.00,97.35
2893.00,97.36
2892.00,97.37
2891.00,97.38
2890.00,97.40
2889.00,97.42
2888.00,97.44
2887.00,97.45
2886.00,97.48
2885.00,97.50
2884.00,97.52
2883.00,97.54
2882.00,97.56
2881.00,97.58
2880.00,97.60
2879.00,97.61
2878.00,97.63
2877.00,97.65
2876.00,97.66
2875.00,97.67
2874.00,97.68
2873.00,97.70
2872.00,97.71
2871.00,97.73
2870.00,97.75
2869.00,97.77
2868.00,97.79
2867.00,97.81
2866.00,97.82
2865.00,97.83
2864.00,97.84
2863.00,97.84
2862.00,97.85
2861.00,97.86
2860.00,97.86
2859.00,97.86
2858.00,97.86
2857.00,97.86
2856.00,97.87
2855.00,97.88
2854.00,97.89
2853.00,97.90
2852.00,97.92
2851.00,97.94
2850.00,97.97
2849.00,98.01
2848.00,98.06
2847.00,98.11
2846.00,98.17
2845.00,98.22
2844.00,98.25
2843.00,98.28
2842.00,98.31
2841.00,98.33
2840.00,98.35
2839.00,98.36
2838.00,98.37
2837.00,98.38
2836.00,98.39
2835.00,98.40
2834.00,98.41
2833.00,98.42
2832.00,98.42
2831.00,98.42
2830.00,98.43
2829.00,98.44
2828.00,98.45
2827.00,98.45
2826.00,98.46
2825.00,98.46
2824.00,98.46
2823.00,98.46
2822.00,98.46
2821.00,98.45
2820.00,98.45
2819.00,98.45
2818.00,98.45
2817.00,98.44
2816.00,98.44
2815.00,98.44
2814.00,98.43
2813.00,98.43
2812.00,98.44
2811.00,98.44
2810.00,98.45
2809.00,98.45
2808.00,98.45
2807.00,98.46
2806.00,98.46
2805.00,98.47
2804.00,98.47
2803.00,98.48
2802.00,98.49
2801.00,98.50
2800.00,98.51
2799.00,98.52
2798.00,98.53
2797.00,98.54
2796.00,98.55
2795.00,98.55
2794.00,98.56
2793.00,98.58
2792.00,98.59
2791.00,98.60
2790.00,98.60
2789.00,98.61
2788.00,98.62
2787.00,98.62
2786.00,98.63
2785.00,98.63
2784.00,98.63
2783.00,98.64
2782.00,98.65
2781.00,98.66
2780.00,98.67
2779.00,98.67
2778.00,98.68
2777.00,98.68
2776.00,98.68
2775.00,98.69
2774.00,98.69
2773.00,98.70
2772.00,98.70
2771.00,98.70
2770.00,98.70
2769.00,98.70
2768.00,98.70
2767.00,98.70
2766.00,98.70
2765.00,98.71
2764.00,98.71
2763.00,98.72
2762.00,98.72
2761.00,98.71
2760.00,98.71
2759.00,98.71
2758.00,98.71
2757.00,98.72
2756.00,98.72
2755.00,98.72
2754.00,98.72
2753.00,98.72
2752.00,98.72
2751.00,98.73
2750.00,98.73
2749.00,98.73
2748.00,98.73
2747.00,98.73
2746.00,98.73
2745.00,98.73
2744.00,98.73
2743.00,98.73
2742.00,98.73
2741.00,98.73
2740.00,98.73
2739.00,98.74
2738.00,98.74
2737.00,98.75
2736.00,98.75
2735.00,98.76
2734.00,98.76
2733.00,98.77
2732.00,98.78
2731.00,98.79
2730.00,98.80
2729.00,98.80
2728.00,98.81
2727.00,98.82
2726.00,98.83
2725.00,98.84
2724.00,98.84
2723.00,98.84
2722.00,98.84
2721.00,98.84
2720.00,98.85
2719.00,98.85
2718.00,98.85
2717.00,98.86
2716.00,98.86
2715.00,98.87
2714.00,98.87
2713.00,98.87
2712.00,98.87
2711.00,98.87
2710.00,98.87
2709.00,98.88
2708.00,98.88
2707.00,98.88
2706.00,98.89
2705.00,98.89
2704.00,98.89
2703.00,98.89
2702.00,98.89
2701.00,98.89
2700.00,98.89
2699.00,98.88
2698.00,98.89
2697.00,98.89
2696.00,98.89
2695.00,98.89
2694.00,98.88
2693.00,98.87
2692.00,98.87
2691.00,98.87
2690.00,98.86
2689.00,98.86
2688.00,98.85
2687.00,98.85
2686.00,98.85
2685.00,98.85
2684.00,98.85
2683.00,98.85
2682.00,98.86
2681.00,98.87
2680.00,98.87
2679.00,98.87
2678.00,98.87
2677.00,98.87
2676.00,98.87
2675.00,98.86
2674.00,98.87
2673.00,98.87
2672.00,98.87
2671.00,98.88
2670.00,98.88
2669.00,98.88
2668.00,98.89
2667.00,98.89
2666.00,98.89
2665.00,98.89
2664.00,98.88
2663.00,98.88
2662.00,98.88
2661.00,98.87
2660.00,98.87
2659.00,98.87
2658.00,98.86
2657.00,98.86
2656.00,98.86
2655.00,98.87
2654.00,98.87
2653.00,98.87
2652.00,98.86
2651.00,98.86
2650.00,98.86
2649.00,98.87
2648.00,98.87
2647.00,98.86
2646.00,98.85
2645.00,98.85
2644.00,98.84
2643.00,98.84
2642.00,98.84
2641.00,98.83
2640.00,98.83
2639.00,98.82
2638.00,98.82
2637.00,98.82
2636.00,98.81
2635.00,98.81
2634.00,98.80
2633.00,98.79
2632.00,98.79
2631.00,98.78
2630.00,98.78
2629.00,98.78
2628.00,98.79
2627.00,98.79
2626.00,98.79
2625.00,98.79
2624.00,98.79
2623.00,98.78
2622.00,98.79
2621.00,98.80
2620.00,98.81
2619.00,98.82
2618.00,98.83
2617.00,98.83
2616.00,98.82
2615.00,98.82
2614.00,98.81
2613.00,98.81
2612.00,98.81
2611.00,98.81
2610.00,98.81
2609.00,98.81
2608.00,98.81
2607.00,98.81
2606.00,98.80
2605.00,98.80
2604.00,98.79
2603.00,98.78
2602.00,98.78
2601.00,98.78
2600.00,98.78
2599.00,98.77
2598.00,98.77
2597.00,98.76
2596.00,98.76
2595.00,98.75
2594.00,98.75
2593.00,98.75
2592.00,98.74
2591.00,98.73
2590.00,98.73
2589.00,98.73
2588.00,98.73
2587.00,98.73
2586.00,98.72
2585.00,98.71
2584.00,98.71
2583.00,98.71
2582.00,98.71
2581.00,98.71
2580.00,98.71
2579.00,98.71
2578.00,98.71
2577.00,98.71
2576.00,98.72
2575.00,98.72
2574.00,98.72
2573.00,98.72
2572.00,98.72
2571.00,98.73
2570.00,98.74
2569.00,98.74
2568.00,98.73
2567.00,98.73
2566.00,98.72
2565.00,98.72
2564.00,98.72
2563.00,98.72
2562.00,98.71
2561.00,98.71
2560.00,98.71
2559.00,98.71
2558.00,98.72
2557.00,98.73
2556.00,98.72
2555.00,98.72
2554.00,98.71
2553.00,98.72
2552.00,98.72
2551.00,98.72
2550.00,98.72
2549.00,98.72
2548.00,98.73
2547.00,98.74
2546.00,98.74
2545.00,98.73
2544.00,98.73
2543.00,98.72
2542.00,98.72
2541.00,98.73
2540.00,98.73
2539.00,98.72
2538.00,98.71
2537.00,98.71
2536.00,98.71
2535.00,98.72
2534.00,98.73
2533.00,98.73
2532.00,98.73
2531.00,98.73
2530.00,98.73
2529.00,98.74
2528.00,98.75
2527.00,98.75
2526.00,98.75
2525.00,98.74
2524.00,98.74
2523.00,98.75
2522.00,98.75
2521.00,98.76
2520.00,98.76
2519.00,98.77
2518.00,98.78
2517.00,98.79
2516.00,98.79
2515.00,98.80
2514.00,98.80
2513.00,98.80
2512.00,98.81
2511.00,98.81
2510.00,98.82
2509.00,98.82
2508.00,98.83
2507.00,98.83
2506.00,98.84
2505.00,98.86
2504.00,98.87
2503.00,98.87
2502.00,98.87
2501.00,98.87
2500.00,98.87
2499.00,98.88
2498.00,98.88
2497.00,98.88
2496.00,98.87
2495.00,98.87
2494.00,98.88
2493.00,98.89
2492.00,98.90
2491.00,98.91
2490.00,98.92
2489.00,98.92
2488.00,98.92
2487.00,98.93
2486.00,98.93
2485.00,98.94
2484.00,98.94
2483.00,98.95
2482.00,98.95
2481.00,98.96
2480.00,98.97
2479.00,98.98
2478.00,98.98
2477.00,98.99
2476.00,98.99
2475.00,98.99
2474.00,98.99
2473.00,99.00
2472.00,99.00
2471.00,99.00
2470.00,99.01
2469.00,99.01
2468.00,99.02
2467.00,99.02
2466.00,99.02
2465.00,99.03
2464.00,99.03
2463.00,99.04
2462.00,99.04
2461.00,99.04
2460.00,99.03
2459.00,99.03
2458.00,99.02
2457.00,99.02
2456.00,99.02
2455.00,99.02
2454.00,99.03
2453.00,99.03
2452.00,99.03
2451.00,99.03
2450.00,99.03
2449.00,99.03
2448.00,99.03
2447.00,99.04
2446.00,99.05
2445.00,99.06
2444.00,99.07
2443.00,99.07
2442.00,99.06
2441.00,99.06
2440.00,99.06
2439.00,99.06
2438.00,99.07
2437.00,99.07
2436.00,99.07
2435.00,99.05
2434.00,99.05
2433.00,99.04
2432.00,99.04
2431.00,99.03
2430.00,99.03
2429.00,99.02
2428.00,99.02
2427.00,99.03
2426.00,99.03
2425.00,99.02
2424.00,99.01
2423.00,99.00
2422.00,99.00
2421.00,98.99
2420.00,98.99
2419.00,98.99
2418.00,98.99
2417.00,98.97
2416.00,98.97
2415.00,98.96
2414.00,98.96
2413.00,98.96
2412.00,98.95
2411.00,98.95
2410.00,98.94
2409.00,98.94
2408.00,98.94
2407.00,98.94
2406.00,98.94
2405.00,98.94
2404.00,98.94
2403.00,98.94
2402.00,98.94
2401.00,98.94
2400.00,98.93
2399.00,98.92
2398.00,98.91
2397.00,98.91
2396.00,98.90
2395.00,98.90
2394.00,98.90
2393.00,98.90
2392.00,98.90
2391.00,98.90
2390.00,98.90
2389.00,98.90
2388.00,98.91
2387.00,98.91
2386.00,98.91
2385.00,98.92
2384.00,98.93
2383.00,98.94
2382.00,98.96
2381.00,98.97
2380.00,98.98
2379.00,98.98
2378.00,98.98
2377.00,98.99
2376.00,98.99
2375.00,99.00
2374.00,99.01
2373.00,99.02
2372.00,99.02
2371.00,99.02
2370.00,99.02
2369.00,99.01
2368.00,99.02
2367.00,99.03
2366.00,99.05
2365.00,99.06
2364.00,99.06
2363.00,99.04
2362.00,99.03
2361.00,99.03
2360.00,99.05
2359.00,99.07
2358.00,99.08
2357.00,99.08
2356.00,99.08
2355.00,99.08
2354.00,99.09
2353.00,99.10
2352.00,99.11
2351.00,99.12
2350.00,99.12
2349.00,99.11
2348.00,99.11
2347.00,99.10
2346.00,99.10
2345.00,99.11
2344.00,99.12
2343.00,99.13
2342.00,99.13
2341.00,99.13
2340.00,99.13
2339.00,99.13
2338.00,99.13
2337.00,99.14
2336.00,99.15
2335.00,99.15
2334.00,99.16
2333.00,99.16
2332.00,99.17
2331.00,99.18
2330.00,99.19
2329.00,99.20
2328.00,99.19
2327.00,99.16
2326.00,99.11
2325.00,99.06
2324.00,99.03
2323.00,99.04
2322.00,99.08
2321.00,99.12
2320.00,99.15
2319.00,99.17
2318.00,99.18
2317.00,99.19
2316.00,99.20
2315.00,99.21
2314.00,99.22
2313.00,99.23
2312.00,99.24
2311.00,99.25
2310.00,99.25
2309.00,99.25
2308.00,99.24
2307.00,99.22
2306.00,99.21
2305.00,99.19
2304.00,99.18
2303.00,99.16
2302.00,99.15
2301.00,99.14
2300.00,99.12
2299.00,99.10
2298.00,99.09
2297.00,99.07
2296.00,99.06
2295.00,99.04
2294.00,99.02
2293.00,99.00
2292.00,98.98
2291.00,98.96
2290.00,98.94
2289.00,98.92
2288.00,98.90
2287.00,98.88
2286.00,98.87
2285.00,98.87
2284.00,98.88
2283.00,98.89
2282.00,98.91
2281.00,98.93
2280.00,98.96
2279.00,98.98
2278.00,99.00
2277.00,99.02
2276.00,99.03
2275.00,99.03
2274.00,99.04
2273.00,99.04
2272.00,99.05
2271.00,99.05
2270.00,99.06
2269.00,99.07
2268.00,99.08
2267.00,99.09
2266.00,99.10
2265.00,99.11
2264.00,99.11
2263.00,99.12
2262.00,99.12
2261.00,99.12
2260.00,99.10
2259.00,99.08
2258.00,99.07
2257.00,99.07
2256.00,99.09
2255.00,99.11
2254.00,99.12
2253.00,99.12
2252.00,99.13
2251.00,99.13
2250.00,99.15
2249.00,99.16
2248.00,99.18
2247.00,99.20
2246.00,99.21
2245.00,99.22
2244.00,99.23
2243.00,99.23
2242.00,99.24
2241.00,99.24
2240.00,99.24
2239.00,99.24
2238.00,99.25
2237.00,99.26
2236.00,99.28
2235.00,99.29
2234.00,99.29
2233.00,99.30
2232.00,99.30
2231.00,99.31
2230.00,99.32
2229.00,99.34
2228.00,99.36
2227.00,99.37
2226.00,99.38
2225.00,99.38
2224.00,99.38
2223.00,99.38
2222.00,99.39
2221.00,99.40
2220.00,99.41
2219.00,99.41
2218.00,99.42
2217.00,99.42
2216.00,99.41
2215.00,99.41
2214.00,99.43
2213.00,99.46
2212.00,99.50
2211.00,99.52
2210.00,99.52
2209.00,99.51
2208.00,99.51
2207.00,99.52
2206.00,99.53
2205.00,99.54
2204.00,99.54
2203.00,99.53
2202.00,99.53
2201.00,99.56
2200.00,99.60
2199.00,99.64
2198.00,99.65
2197.00,99.65
2196.00,99.64
2195.00,99.64
2194.00,99.64
2193.00,99.64
2192.00,99.63
2191.00,99.62
2190.00,99.61
2189.00,99.62
2188.00,99.62
2187.00,99.62
2186.00,99.61
2185.00,99.61
2184.00,99.63
2183.00,99.67
2182.00,99.72
2181.00,99.74
2180.00,99.73
2179.00,99.69
2178.00,99.67
2177.00,99.67
2176.00,99.69
2175.00,99.69
2174.00,99.67
2173.00,99.64
2172.00,99.61
2171.00,99.58
2170.00,99.56
2169.00,99.52
2168.00,99.47
2167.00,99.44
2166.00,99.44
2165.00,99.46
2164.00,99.47
2163.00,99.46
2162.00,99.47
2161.00,99.52
2160.00,99.63
2159.00,99.78
2158.00,99.90
2157.00,99.94
2156.00,99.92
2155.00,99.88
2154.00,99.86
2153.00,99.83
2152.00,99.79
2151.00,99.74
2150.00,99.69
2149.00,99.64
2148.00,99.62
2147.00,99.61
2146.00,99.63
2145.00,99.64
2144.00,99.63
2143.00,99.60
2142.00,99.56
2141.00,99.51
2140.00,99.48
2139.00,99.45
2138.00,99.44
2137.00,99.43
2136.00,99.45
2135.00,99.49
2134.00,99.52
2133.00,99.54
2132.00,99.51
2131.00,99.47
2130.00,99.41
2129.00,99.37
2128.00,99.34
2127.00,99.32
2126.00,99.29
2125.00,99.26
2124.00,99.24
2123.00,99.21
2122.00,99.20
2121.00,99.18
2120.00,99.15
2119.00,99.12
2118.00,99.10
2117.00,99.09
2116.00,99.08
2115.00,99.08
2114.00,99.07
2113.00,99.05
2112.00,99.05
2111.00,99.06
2110.00,99.07
2109.00,99.07
2108.00,99.06
2107.00,99.03
2106.00,99.02
2105.00,99.03
2104.00,99.05
2103.00,99.07
2102.00,99.06
2101.00,99.05
2100.00,99.03
2099.00,99.04
2098.00,99.06
2097.00,99.09
2096.00,99.11
2095.00,99.13
2094.00,99.15
2093.00,99.17
2092.00,99.20
2091.00,99.20
2090.00,99.19
2089.00,99.16
2088.00,99.13
2087.00,99.12
2086.00,99.13
2085.00,99.15
2084.00,99.15
2083.00,99.14
2082.00,99.15
2081.00,99.17
2080.00,99.20
2079.00,99.22
2078.00,99.22
2077.00,99.23
2076.00,99.25
2075.00,99.29
2074.00,99.32
2073.00,99.34
2072.00,99.34
2071.00,99.33
2070.00,99.35
2069.00,99.39
2068.00,99.43
2067.00,99.46
2066.00,99.46
2065.00,99.45
2064.00,99.43
2063.00,99.44
2062.00,99.46
2061.00,99.50
2060.00,99.53
2059.00,99.54
2058.00,99.55
2057.00,99.57
2056.00,99.60
2055.00,99.62
2054.00,99.61
2053.00,99.55
2052.00,99.48
2051.00,99.46
2050.00,99.52
2049.00,99.63
2048.00,99.75
2047.00,99.83
2046.00,99.88
2045.00,99.91
2044.00,99.93
2043.00,99.94
2042.00,99.95
2041.00,99.94
2040.00,99.92
2039.00,99.92
2038.00,99.95
2037.00,100.00
2036.00,100.04
2035.00,100.06
2034.00,100.10
2033.00,100.15
2032.00,100.20
2031.00,100.21
2030.00,100.16
2029.00,100.08
2028.00,100.00
2027.00,99.97
2026.00,99.97
2025.00,99.97
2024.00,99.95
2023.00,99.91
2022.00,99.88
2021.00,99.90
2020.00,99.94
2019.00,99.98
2018.00,99.99
2017.00,99.95
2016.00,99.89
2015.00,99.85
2014.00,99.85
2013.00,99.87
2012.00,99.85
2011.00,99.78
2010.00,99.71
2009.00,99.67
2008.00,99.69
2007.00,99.73
2006.00,99.76
2005.00,99.75
2004.00,99.70
2003.00,99.66
2002.00,99.65
2001.00,99.66
2000.00,99.65
1999.00,99.63
1998.00,99.60
1997.00,99.58
1996.00,99.56
1995.00,99.53
1994.00,99.48
1993.00,99.44
1992.00,99.40
1991.00,99.39
1990.00,99.40
1989.00,99.42
1988.00,99.42
1987.00,99.38
1986.00,99.31
1985.00,99.24
1984.00,99.19
1983.00,99.16
1982.00,99.14
1981.00,99.10
1980.00,99.05
1979.00,99.06
1978.00,99.13
1977.00,99.23
1976.00,99.29
1975.00,99.28
1974.00,99.24
1973.00,99.21
1972.00,99.21
1971.00,99.22
1970.00,99.19
1969.00,99.12
1968.00,99.04
1967.00,98.98
1966.00,98.95
1965.00,98.93
1964.00,98.89
1963.00,98.84
1962.00,98.78
1961.00,98.76
1960.00,98.76
1959.00,98.76
1958.00,98.75
1957.00,98.71
1956.00,98.66
1955.00,98.66
1954.00,98.70
1953.00,98.75
1952.00,98.79
1951.00,98.80
1950.00,98.80
1949.00,98.81
1948.00,98.82
1947.00,98.84
1946.00,98.86
1945.00,98.89
1944.00,98.93
1943.00,98.99
1942.00,99.05
1941.00,99.11
1940.00,99.13
1939.00,99.13
1938.00,99.14
1937.00,99.17
1936.00,99.22
1935.00,99.27
1934.00,99.30
1933.00,99.31
1932.00,99.31
1931.00,99.31
1930.00,99.33
1929.00,99.36
1928.00,99.38
1927.00,99.38
1926.00,99.38
1925.00,99.40
1924.00,99.44
1923.00,99.48
1922.00,99.51
1921.00,99.51
1920.00,99.50
1919.00,99.50
1918.00,99.52
1917.00,99.56
1916.00,99.57
1915.00,99.55
1914.00,99.51
1913.00,99.49
1912.00,99.49
1911.00,99.51
1910.00,99.55
1909.00,99.57
1908.00,99.56
1907.00,99.54
1906.00,99.52
1905.00,99.52
1904.00,99.53
1903.00,99.52
1902.00,99.52
1901.00,99.51
1900.00,99.52
1899.00,99.54
1898.00,99.55
1897.00,99.56
1896.00,99.55
1895.00,99.54
1894.00,99.54
1893.00,99.55
1892.00,99.56
1891.00,99.57
1890.00,99.57
1889.00,99.59
1888.00,99.59
1887.00,99.59
1886.00,99.57
1885.00,99.54
1884.00,99.51
1883.00,99.49
1882.00,99.49
1881.00,99.51
1880.00,99.53
1879.00,99.53
1878.00,99.51
1877.00,99.48
1876.00,99.48
1875.00,99.49
1874.00,99.50
1873.00,99.51
1872.00,99.50
1871.00,99.48
1870.00,99.48
1869.00,99.49
1868.00,99.51
1867.00,99.51
1866.00,99.46
1865.00,99.41
1864.00,99.37
1863.00,99.35
1862.00,99.34
1861.00,99.33
1860.00,99.31
1859.00,99.29
1858.00,99.27
1857.00,99.25
1856.00,99.23
1855.00,99.18
1854.00,99.12
1853.00,99.08
1852.00,99.06
1851.00,99.05
1850.00,99.05
1849.00,99.04
1848.00,99.01
1847.00,98.98
1846.00,98.94
1845.00,98.92
1844.00,98.90
1843.00,98.87
1842.00,98.82
1841.00,98.75
1840.00,98.68
1839.00,98.62
1838.00,98.57
1837.00,98.53
1836.00,98.48
1835.00,98.43
1834.00,98.40
1833.00,98.37
1832.00,98.34
1831.00,98.27
1830.00,98.22
1829.00,98.19
1828.00,98.20
1827.00,98.21
1826.00,98.19
1825.00,98.15
1824.00,98.12
1823.00,98.08
1822.00,98.05
1821.00,98.04
1820.00,98.03
1819.00,98.03
1818.00,98.03
1817.00,98.03
1816.00,98.01
1815.00,97.99
1814.00,97.97
1813.00,97.96
1812.00,97.96
1811.00,97.94
1810.00,97.92
1809.00,97.92
1808.00,97.92
1807.00,97.90
1806.00,97.87
1805.00,97.86
1804.00,97.88
1803.00,97.91
1802.00,97.92
1801.00,97.90
1800.00,97.85
1799.00,97.79
1798.00,97.77
1797.00,97.78
1796.00,97.80
1795.00,97.80
1794.00,97.76
1793.00,97.72
1792.00,97.71
1791.00,97.70
1790.00,97.67
1789.00,97.63
1788.00,97.58
1787.00,97.54
1786.00,97.51
1785.00,97.50
1784.00,97.49
1783.00,97.45
1782.00,97.40
1781.00,97.34
1780.00,97.31
1779.00,97.27
1778.00,97.22
1777.00,97.18
1776.00,97.15
1775.00,97.11
1774.00,97.04
1773.00,96.96
1772.00,96.90
1771.00,96.84
1770.00,96.80
1769.00,96.75
1768.00,96.67
1767.00,96.56
1766.00,96.43
1765.00,96.32
1764.00,96.21
1763.00,96.08
1762.00,95.92
1761.00,95.78
1760.00,95.66
1759.00,95.50
1758.00,95.28
1757.00,95.00
1756.00,94.72
1755.00,94.43
1754.00,94.13
1753.00,93.82
1752.00,93.39
1751.00,92.77
1750.00,91.96
1749.00,91.02
1748.00,89.96
1747.00,88.76
1746.00,87.43
1745.00,85.95
1744.00,84.27
1743.00,82.41
1742.00,80.41
1741.00,78.21
1740.00,75.72
1739.00,73.18
1738.00,71.04
1737.00,69.37
1736.00,67.75
1735.00,65.40
1734.00,62.12
1733.00,58.91
1732.00,56.45
1731.00,54.37
1730.00,52.22
1729.00,49.96
1728.00,47.76
1727.00,45.67
1726.00,43.62
1725.00,41.55
1724.00,39.44
1723.00,37.33
1722.00,35.43
1721.00,33.88
1720.00,32.56
1719.00,31.00
1718.00,28.88
1717.00,26.67
1716.00,25.14
1715.00,24.36
1714.00,24.15
1713.00,24.57
1712.00,25.62
1711.00,27.15
1710.00,29.04
1709.00,31.30
1708.00,33.95
1707.00,36.94
1706.00,40.22
1705.00,43.55
1704.00,46.60
1703.00,49.35
1702.00,52.11
1701.00,55.22
1700.00,58.42
1699.00,61.01
1698.00,63.03
1697.00,64.94
1696.00,66.91
1695.00,68.69
1694.00,70.09
1693.00,71.26
1692.00,72.37
1691.00,73.47
1690.00,74.49
1689.00,75.38
1688.00,76.16
1687.00,76.90
1686.00,77.60
1685.00,78.18
1684.00,78.58
1683.00,78.95
1682.00,79.43
1681.00,80.05
1680.00,80.73
1679.00,81.41
1678.00,82.05
1677.00,82.68
1676.00,83.28
1675.00,83.84
1674.00,84.34
1673.00,84.82
1672.00,85.28
1671.00,85.74
1670.00,86.20
1669.00,86.67
1668.00,87.14
1667.00,87.60
1666.00,88.04
1665.00,88.49
1664.00,88.94
1663.00,89.37
1662.00,89.77
1661.00,90.14
1660.00,90.48
1659.00,90.79
1658.00,91.09
1657.00,91.39
1656.00,91.72
1655.00,92.05
1654.00,92.29
1653.00,92.41
1652.00,92.56
1651.00,92.72
1650.00,92.79
1649.00,92.84
1648.00,92.95
1647.00,93.08
1646.00,93.21
1645.00,93.32
1644.00,93.43
1643.00,93.51
1642.00,93.58
1641.00,93.67
1640.00,93.77
1639.00,93.88
1638.00,93.99
1637.00,94.05
1636.00,94.07
1635.00,94.09
1634.00,94.17
1633.00,94.27
1632.00,94.36
1631.00,94.43
1630.00,94.47
1629.00,94.52
1628.00,94.58
1627.00,94.66
1626.00,94.74
1625.00,94.79
1624.00,94.82
1623.00,94.84
1622.00,94.87
1621.00,94.90
1620.00,94.91
1619.00,94.87
1618.00,94.76
1617.00,94.56
1616.00,94.35
1615.00,94.22
1614.00,94.16
1613.00,94.16
1612.00,94.23
1611.00,94.36
1610.00,94.54
1609.00,94.75
1608.00,94.96
1607.00,95.17
1606.00,95.37
1605.00,95.57
1604.00,95.76
1603.00,95.94
1602.00,96.09
1601.00,96.23
1600.00,96.34
1599.00,96.45
1598.00,96.55
1597.00,96.63
1596.00,96.68
1595.00,96.71
1594.00,96.71
1593.00,96.70
1592.00,96.66
1591.00,96.62
1590.00,96.55
1589.00,96.46
1588.00,96.35
1587.00,96.20
1586.00,96.00
1585.00,95.71
1584.00,95.33
1583.00,94.87
1582.00,94.35
1581.00,93.86
1580.00,93.47
1579.00,93.24
1578.00,93.22
1577.00,93.39
1576.00,93.74
1575.00,94.17
1574.00,94.56
1573.00,94.89
1572.00,95.18
1571.00,95.47
1570.00,95.77
1569.00,96.06
1568.00,96.30
1567.00,96.47
1566.00,96.59
1565.00,96.67
1564.00,96.77
1563.00,96.91
1562.00,97.06
1561.00,97.17
1560.00,97.20
1559.00,97.22
1558.00,97.28
1557.00,97.33
1556.00,97.38
1555.00,97.39
1554.00,97.39
1553.00,97.40
1552.00,97.41
1551.00,97.43
1550.00,97.46
1549.00,97.47
1548.00,97.47
1547.00,97.48
1546.00,97.51
1545.00,97.57
1544.00,97.64
1543.00,97.69
1542.00,97.70
1541.00,97.70
1540.00,97.72
1539.00,97.75
1538.00,97.75
1537.00,97.69
1536.00,97.57
1535.00,97.43
1534.00,97.28
1533.00,97.17
1532.00,97.11
1531.00,97.06
1530.00,96.98
1529.00,96.90
1528.00,96.85
1527.00,96.82
1526.00,96.81
1525.00,96.81
1524.00,96.82
1523.00,96.85
1522.00,96.92
1521.00,97.01
1520.00,97.07
1519.00,97.05
1518.00,96.99
1517.00,96.91
1516.00,96.84
1515.00,96.73
1514.00,96.54
1513.00,96.25
1512.00,95.86
1511.00,95.36
1510.00,94.75
1509.00,93.90
1508.00,92.57
1507.00,90.67
1506.00,89.06
1505.00,88.61
1504.00,89.14
1503.00,90.16
1502.00,91.40
1501.00,92.68
1500.00,93.84
1499.00,94.80
1498.00,95.58
1497.00,96.16
1496.00,96.54
1495.00,96.75
1494.00,96.83
1493.00,96.82
1492.00,96.76
1491.00,96.71
1490.00,96.64
1489.00,96.48
1488.00,96.20
1487.00,95.86
1486.00,95.51
1485.00,95.14
1484.00,94.75
1483.00,94.35
1482.00,93.91
1481.00,93.43
1480.00,92.98
1479.00,92.56
1478.00,92.18
1477.00,91.78
1476.00,91.39
1475.00,91.04
1474.00,90.70
1473.00,90.40
1472.00,90.24
1471.00,90.29
1470.00,90.49
1469.00,90.75
1468.00,90.99
1467.00,91.17
1466.00,91.23
1465.00,91.16
1464.00,91.00
1463.00,90.81
1462.00,90.64
1461.00,90.50
1460.00,90.40
1459.00,90.33
1458.00,90.24
1457.00,90.06
1456.00,89.88
1455.00,89.78
1454.00,89.75
1453.00,89.78
1452.00,89.90
1451.00,90.07
1450.00,90.27
1449.00,90.48
1448.00,90.69
1447.00,90.87
1446.00,91.00
1445.00,91.11
1444.00,91.20
1443.00,91.29
1442.00,91.40
1441.00,91.52
1440.00,91.68
1439.00,91.88
1438.00,92.15
1437.00,92.48
1436.00,92.84
1435.00,93.17
1434.00,93.45
1433.00,93.71
1432.00,93.98
1431.00,94.25
1430.00,94.48
1429.00,94.67
1428.00,94.77
1427.00,94.81
1426.00,94.79
1425.00,94.70
1424.00,94.53
1423.00,94.29
1422.00,93.99
1421.00,93.57
1420.00,92.89
1419.00,91.80
1418.00,90.37
1417.00,88.68
1416.00,86.70
1415.00,84.39
1414.00,81.77
1413.00,78.91
1412.00,76.05
1411.00,73.53
1410.00,71.70
1409.00,70.77
1408.00,70.80
1407.00,71.78
1406.00,73.56
1405.00,75.82
1404.00,78.17
1403.00,80.29
1402.00,82.10
1401.00,83.67
1400.00,85.11
1399.00,86.39
1398.00,87.45
1397.00,88.26
1396.00,88.90
1395.00,89.43
1394.00,89.86
1393.00,90.16
1392.00,90.36
1391.00,90.50
1390.00,90.61
1389.00,90.70
1388.00,90.73
1387.00,90.69
1386.00,90.60
1385.00,90.48
1384.00,90.37
1383.00,90.29
1382.00,90.22
1381.00,90.14
1380.00,90.04
1379.00,89.92
1378.00,89.77
1377.00,89.61
1376.00,89.43
1375.00,89.25
1374.00,89.05
1373.00,88.88
1372.00,88.76
1371.00,88.74
1370.00,88.83
1369.00,89.04
1368.00,89.36
1367.00,89.77
1366.00,90.24
1365.00,90.75
1364.00,91.29
1363.00,91.78
1362.00,92.15
1361.00,92.35
1360.00,92.41
1359.00,92.39
1358.00,92.32
1357.00,92.19
1356.00,91.98
1355.00,91.68
1354.00,91.28
1353.00,90.76
1352.00,90.11
1351.00,89.29
1350.00,88.26
1349.00,86.97
1348.00,85.37
1347.00,83.43
1346.00,81.15
1345.00,78.56
1344.00,75.80
1343.00,73.12
1342.00,70.75
1341.00,68.87
1340.00,67.69
1339.00,67.40
1338.00,68.05
1337.00,69.56
1336.00,71.76
1335.00,74.44
1334.00,77.37
1333.00,80.27
1332.00,82.92
1331.00,85.14
1330.00,86.84
1329.00,88.07
1328.00,88.89
1327.00,89.38
1326.00,89.64
1325.00,89.70
1324.00,89.65
1323.00,89.50
1322.00,89.30
1321.00,89.06
1320.00,88.78
1319.00,88.46
1318.00,88.10
1317.00,87.73
1316.00,87.33
1315.00,86.91
1314.00,86.44
1313.00,85.92
1312.00,85.36
1311.00,84.77
1310.00,84.16
1309.00,83.54
1308.00,82.92
1307.00,82.29
1306.00,81.67
1305.00,81.06
1304.00,80.42
1303.00,79.73
1302.00,78.94
1301.00,78.04
1300.00,77.02
1299.00,75.91
1298.00,74.75
1297.00,73.53
1296.00,72.29
1295.00,71.06
1294.00,69.85
1293.00,68.68
1292.00,67.56
1291.00,66.47
1290.00,65.44
1289.00,64.45
1288.00,63.48
1287.00,62.56
1286.00,61.68
1285.00,60.83
1284.00,59.99
1283.00,59.16
1282.00,58.35
1281.00,57.54
1280.00,56.70
1279.00,55.84
1278.00,54.94
1277.00,54.00
1276.00,52.99
1275.00,51.92
1274.00,50.80
1273.00,49.56
1272.00,48.22
1271.00,46.79
1270.00,45.32
1269.00,43.80
1268.00,42.26
1267.00,40.74
1266.00,39.28
1265.00,37.87
1264.00,36.56
1263.00,35.39
1262.00,34.37
1261.00,33.49
1260.00,32.73
1259.00,32.11
1258.00,31.62
1257.00,31.20
1256.00,30.78
1255.00,30.36
1254.00,29.90
1253.00,29.36
1252.00,28.76
1251.00,28.12
1250.00,27.48
1249.00,26.83
1248.00,26.19
1247.00,25.59
1246.00,25.07
1245.00,24.63
1244.00,24.29
1243.00,24.10
1242.00,24.07
1241.00,24.20
1240.00,24.51
1239.00,25.03
1238.00,25.78
1237.00,26.71
1236.00,27.79
1235.00,29.02
1234.00,30.35
1233.00,31.75
1232.00,33.17
1231.00,34.60
1230.00,36.02
1229.00,37.40
1228.00,38.74
1227.00,40.07
1226.00,41.39
1225.00,42.71
1224.00,44.04
1223.00,45.40
1222.00,46.84
1221.00,48.36
1220.00,49.96
1219.00,51.62
1218.00,53.31
1217.00,54.98
1216.00,56.61
1215.00,58.19
1214.00,59.70
1213.00,61.14
1212.00,62.48
1211.00,63.74
1210.00,64.95
1209.00,66.10
1208.00,67.21
1207.00,68.30
1206.00,69.36
1205.00,70.39
1204.00,71.40
1203.00,72.39
1202.00,73.37
1201.00,74.32
1200.00,75.25
1199.00,76.15
1198.00,77.03
1197.00,77.89
1196.00,78.73
1195.00,79.53
1194.00,80.29
1193.00,80.99
1192.00,81.64
1191.00,82.24
1190.00,82.77
1189.00,83.23
1188.00,83.61
1187.00,83.89
1186.00,84.09
1185.00,84.20
1184.00,84.23
1183.00,84.17
1182.00,84.00
1181.00,83.75
1180.00,83.45
1179.00,83.12
1178.00,82.82
1177.00,82.55
1176.00,82.37
1175.00,82.30
1174.00,82.39
1173.00,82.65
1172.00,83.08
1171.00,83.65
1170.00,84.29
1169.00,84.95
1168.00,85.54
1167.00,86.04
1166.00,86.40
1165.00,86.61
1164.00,86.68
1163.00,86.65
1162.00,86.55
1161.00,86.41
1160.00,86.24
1159.00,86.03
1158.00,85.76
1157.00,85.43
1156.00,85.04
1155.00,84.60
1154.00,84.11
1153.00,83.55
1152.00,82.93
1151.00,82.24
1150.00,81.48
1149.00,80.68
1148.00,79.84
1147.00,78.96
1146.00,78.02
1145.00,77.00
1144.00,75.92
1143.00,74.78
1142.00,73.59
1141.00,72.32
1140.00,70.97
1139.00,69.55
1138.00,68.03
1137.00,66.41
1136.00,64.69
1135.00,62.85
1134.00,60.91
1133.00,58.88
1132.00,56.82
1131.00,54.77
1130.00,52.78
1129.00,50.87
1128.00,49.05
1127.00,47.35
1126.00,45.77
1125.00,44.32
1124.00,42.99
1123.00,41.80
1122.00,40.76
1121.00,39.85
1120.00,39.12
1119.00,38.61
1118.00,38.33
1117.00,38.27
1116.00,38.37
1115.00,38.58
1114.00,38.81
1113.00,38.97
1112.00,38.96
1111.00,38.72
1110.00,38.19
1109.00,37.37
1108.00,36.29
1107.00,35.04
1106.00,33.71
1105.00,32.35
1104.00,31.02
1103.00,29.76
1102.00,28.64
1101.00,27.66
1100.00,26.84
1099.00,26.20
1098.00,25.75
1097.00,25.46
1096.00,25.34
1095.00,25.42
1094.00,25.70
1093.00,26.14
1092.00,26.69
1091.00,27.36
1090.00,28.13
1089.00,28.97
1088.00,29.86
1087.00,30.81
1086.00,31.78
1085.00,32.76
1084.00,33.77
1083.00,34.88
1082.00,36.13
1081.00,37.49
1080.00,38.95
1079.00,40.51
1078.00,42.17
1077.00,43.90
1076.00,45.66
1075.00,47.45
1074.00,49.20
1073.00,50.87
1072.00,52.47
1071.00,54.02
1070.00,55.51
1069.00,56.91
1068.00,58.22
1067.00,59.43
1066.00,60.57
1065.00,61.64
1064.00,62.66
1063.00,63.62
1062.00,64.50
1061.00,65.29
1060.00,65.97
1059.00,66.58
1058.00,67.12
1057.00,67.55
1056.00,67.87
1055.00,68.07
1054.00,68.17
1053.00,68.19
1052.00,68.15
1051.00,68.07
1050.00,67.94
1049.00,67.76
1048.00,67.57
1047.00,67.42
1046.00,67.34
1045.00,67.33
1044.00,67.39
1043.00,67.53
1042.00,67.74
1041.00,68.05
1040.00,68.47
1039.00,68.98
1038.00,69.53
1037.00,70.10
1036.00,70.67
1035.00,71.25
1034.00,71.85
1033.00,72.42
1032.00,72.93
1031.00,73.33
1030.00,73.53
1029.00,73.37
1028.00,72.64
1027.00,71.11
1026.00,68.65
1025.00,65.38
1024.00,61.61
1023.00,57.72
1022.00,53.95
1021.00,50.39
1020.00,47.11
1019.00,44.37
1018.00,42.53
1017.00,41.96
1016.00,42.83
1015.00,45.06
1014.00,48.24
1013.00,51.83
1012.00,55.37
1011.00,58.57
1010.00,61.34
1009.00,63.69
1008.00,65.67
1007.00,67.33
1006.00,68.71
1005.00,69.84
1004.00,70.78
1003.00,71.59
1002.00,72.30
1001.00,72.92
1000.00,73.47
999.00,73.95
998.00,74.40
997.00,74.82
996.00,75.20
995.00,75.52
994.00,75.76
993.00,75.94
992.00,76.06
991.00,76.14
990.00,76.19
989.00,76.21
988.00,76.21
987.00,76.19
986.00,76.15
985.00,76.06
984.00,75.88
983.00,75.61
982.00,75.21
981.00,74.71
980.00,74.12
979.00,73.48
978.00,72.80
977.00,72.06
976.00,71.29
975.00,70.55
974.00,69.89
973.00,69.36
972.00,69.01
971.00,68.85
970.00,68.88
969.00,69.11
968.00,69.51
967.00,70.06
966.00,70.72
965.00,71.41
964.00,72.11
963.00,72.82
962.00,73.52
961.00,74.23
960.00,74.91
959.00,75.56
958.00,76.16
957.00,76.71
956.00,77.23
955.00,77.73
954.00,78.20
953.00,78.62
952.00,79.01
951.00,79.36
950.00,79.71
949.00,80.04
948.00,80.36
947.00,80.64
946.00,80.88
945.00,81.10
944.00,81.32
943.00,81.54
942.00,81.76
941.00,81.95
940.00,82.12
939.00,82.27
938.00,82.42
937.00,82.58
936.00,82.75
935.00,82.92
934.00,83.06
933.00,83.19
932.00,83.32
931.00,83.47
930.00,83.62
929.00,83.76
928.00,83.89
927.00,84.02
926.00,84.15
925.00,84.29
924.00,84.43
923.00,84.55
922.00,84.64
921.00,84.72
920.00,84.80
919.00,84.86
918.00,84.91
917.00,84.93
916.00,84.91
915.00,84.88
914.00,84.82
913.00,84.74
912.00,84.61
911.00,84.42
910.00,84.17
909.00,83.87
908.00,83.56
907.00,83.22
906.00,82.87
905.00,82.49
904.00,82.10
903.00,81.72
902.00,81.38
901.00,81.10
900.00,80.89
899.00,80.74
898.00,80.66
897.00,80.64
896.00,80.68
895.00,80.75
894.00,80.85
893.00,80.93
892.00,80.98
891.00,81.00
890.00,80.97
889.00,80.86
888.00,80.66
887.00,80.32
886.00,79.83
885.00,79.17
884.00,78.34
883.00,77.32
882.00,76.09
881.00,74.65
880.00,73.01
879.00,71.20
878.00,69.24
877.00,67.08
876.00,64.68
875.00,62.07
874.00,59.57
873.00,57.81
872.00,57.46
871.00,58.75
870.00,61.34
869.00,64.48
868.00,67.47
867.00,69.94
866.00,71.83
865.00,73.19
864.00,74.13
863.00,74.77
862.00,75.17
861.00,75.41
860.00,75.51
859.00,75.52
858.00,75.43
857.00,75.26
856.00,75.02
855.00,74.74
854.00,74.44
853.00,74.09
852.00,73.67
851.00,73.18
850.00,72.65
849.00,72.18
848.00,71.85
847.00,71.72
846.00,71.81
845.00,72.07
844.00,72.45
843.00,72.93
842.00,73.46
841.00,74.02
840.00,74.58
839.00,75.14
838.00,75.69
837.00,76.25
836.00,76.82
835.00,77.41
834.00,77.99
833.00,78.54
832.00,79.05
831.00,79.52
830.00,79.96
829.00,80.37
828.00,80.75
827.00,81.08
826.00,81.38
825.00,81.65
824.00,81.92
823.00,82.16
822.00,82.37
821.00,82.51
820.00,82.60
819.00,82.68
818.00,82.78
817.00,82.89
816.00,82.99
815.00,83.07
814.00,83.11
813.00,83.15
812.00,83.21
811.00,83.31
810.00,83.42
809.00,83.52
808.00,83.60
807.00,83.67
806.00,83.74
805.00,83.82
804.00,83.92
803.00,84.02
802.00,84.12
801.00,84.17
800.00,84.11
799.00,83.85
798.00,83.29
797.00,82.41
796.00,81.32
795.00,80.27
794.00,79.50
793.00,79.20
792.00,79.37
791.00,79.92
790.00,80.67
789.00,81.47
788.00,82.23
787.00,82.92
786.00,83.52
785.00,84.02
784.00,84.43
783.00,84.78
782.00,85.12
781.00,85.45
780.00,85.75
779.00,86.01
778.00,86.23
777.00,86.43
776.00,86.64
775.00,86.87
774.00,87.11
773.00,87.34
772.00,87.55
771.00,87.78
770.00,88.04
769.00,88.34
768.00,88.63
767.00,88.92
766.00,89.19
765.00,89.44
764.00,89.66
763.00,89.88
762.00,90.07
761.00,90.22
760.00,90.36
759.00,90.49
758.00,90.63
757.00,90.77
756.00,90.90
755.00,90.99
754.00,91.06
753.00,91.12
752.00,91.20
751.00,91.27
750.00,91.29
749.00,91.22
748.00,91.05
747.00,90.79
746.00,90.42
745.00,89.87
744.00,89.04
743.00,87.80
742.00,86.05
741.00,83.72
740.00,80.79
739.00,77.28
738.00,73.25
737.00,68.80
736.00,64.10
735.00,59.32
734.00,54.61
733.00,50.00
732.00,45.49
731.00,41.06
730.00,36.66
729.00,32.33
728.00,28.15
727.00,24.29
726.00,20.98
725.00,18.56
724.00,17.36
723.00,17.49
722.00,18.81
721.00,20.99
720.00,23.63
719.00,26.39
718.00,29.13
717.00,31.87
716.00,34.66
715.00,37.43
714.00,40.07
713.00,42.49
712.00,44.70
711.00,46.72
710.00,48.64
709.00,50.48
708.00,52.26
707.00,53.93
706.00,55.45
705.00,56.90
704.00,58.36
703.00,59.87
702.00,61.45
701.00,63.10
700.00,64.80
699.00,66.51
698.00,68.15
697.00,69.71
696.00,71.11
695.00,72.32
694.00,73.34
693.00,74.23
692.00,75.04
691.00,75.80
690.00,76.46
689.00,76.98
688.00,77.37
687.00,77.67
686.00,77.93
685.00,78.18
684.00,78.36
683.00,78.41
682.00,78.33
681.00,78.25
680.00,78.36
679.00,78.72
678.00,79.26
677.00,79.86
676.00,80.42
675.00,80.94
674.00,81.44
673.00,81.98
672.00,82.52
671.00,83.01
670.00,83.39
669.00,83.69
668.00,83.96
667.00,84.29
666.00,84.62
665.00,84.89
664.00,85.10
663.00,85.26
662.00,85.40
661.00,85.58
660.00,85.77
659.00,85.88
658.00,85.88
657.00,85.84
656.00,85.89
655.00,86.06
654.00,86.33
653.00,86.59
652.00,86.78
651.00,86.90
650.00,87.00
649.00,87.17
648.00,87.38
647.00,87.55
646.00,87.61
645.00,87.59
644.00,87.61
643.00,87.71
642.00,87.89
641.00,88.06
640.00,88.14
639.00,88.11
638.00,88.02
637.00,87.90
636.00,87.67
635.00,87.19
634.00,86.41
633.00,85.56
632.00,85.06
631.00,85.19
630.00,85.89
629.00,86.81
628.00,87.58
627.00,88.05
626.00,88.32
625.00,88.55
624.00,88.79
623.00,88.99
622.00,89.09
621.00,89.11
620.00,89.12
619.00,89.18
618.00,89.31
617.00,89.43
616.00,89.47
615.00,89.43
614.00,89.40
613.00,89.46
612.00,89.61
611.00,89.74
610.00,89.78
609.00,89.73
608.00,89.67
607.00,89.68
606.00,89.77
605.00,89.87
604.00,89.93
603.00,89.90
602.00,89.85
601.00,89.87
600.00,89.98
599.00,90.10
598.00,90.16
597.00,90.12
596.00,90.05
595.00,90.01
594.00,90.07
593.00,90.18
592.00,90.27
591.00,90.26
590.00,90.19
589.00,90.14
588.00,90.15
587.00,90.17
586.00,90.18
585.00,90.16
584.00,90.14
583.00,90.14
582.00,90.16
581.00,90.18
580.00,90.13
579.00,89.98
578.00,89.80
577.00,89.68
576.00,89.65
575.00,89.66
574.00,89.62
573.00,89.53
572.00,89.42
571.00,89.38
570.00,89.41
569.00,89.45
568.00,89.45
567.00,89.38
566.00,89.28
565.00,89.25
564.00,89.30
563.00,89.41
562.00,89.47
561.00,89.44
560.00,89.34
559.00,89.22
558.00,89.14
557.00,89.12
556.00,89.12
555.00,89.07
554.00,88.97
553.00,88.87
552.00,88.82
551.00,88.80
550.00,88.73
549.00,88.61
548.00,88.46
547.00,88.36
546.00,88.32
545.00,88.29
544.00,88.19
543.00,87.98
542.00,87.71
541.00,87.49
540.00,87.37
539.00,87.30
538.00,87.17
537.00,86.91
536.00,86.55
535.00,86.20
534.00,85.95
533.00,85.78
532.00,85.58
531.00,85.28
530.00,84.91
529.00,84.58
528.00,84.36
527.00,84.23
526.00,84.11
525.00,83.93
524.00,83.74
523.00,83.62
522.00,83.59
521.00,83.63
520.00,83.68
519.00,83.66
518.00,83.57
517.00,83.46
516.00,83.37
515.00,83.24
514.00,83.01
513.00,82.62
512.00,82.05
511.00,81.32
510.00,80.43
509.00,79.36
508.00,78.08
507.00,76.72
506.00,75.58
505.00,74.85
504.00,74.55
503.00,74.55
502.00,74.68
501.00,74.84
500.00,75.07
499.00,75.46
498.00,76.07
497.00,76.86
496.00,77.68
495.00,78.44
494.00,79.09
493.00,79.67
492.00,80.22
491.00,80.74
490.00,81.17
489.00,81.48
488.00,81.70
487.00,81.87
486.00,82.06
485.00,82.29
484.00,82.50
483.00,82.65
482.00,82.75
481.00,82.87
480.00,83.07
479.00,83.30
478.00,83.47
477.00,83.50
476.00,83.48
475.00,83.55
474.00,83.75
473.00,84.00
472.00,84.12
471.00,84.06
470.00,83.92
469.00,83.91
468.00,84.09
467.00,84.39
466.00,84.60
465.00,84.57
464.00,84.34
463.00,84.09
462.00,84.00
461.00,84.13
460.00,84.39
459.00,84.60
458.00,84.61
457.00,84.43
456.00,84.22
455.00,84.10
454.00,84.04
453.00,83.92
452.00,83.69
451.00,83.40
450.00,83.16
449.00,82.92
448.00,82.57
447.00,82.03
446.00,81.37
445.00,80.74
444.00,80.19
443.00,79.57
442.00,78.67
441.00,77.47
440.00,76.20
439.00,75.13
438.00,74.37
437.00,73.83
436.00,73.40
435.00,73.02
434.00,72.74
433.00,72.67
432.00,72.97
431.00,73.61
430.00,74.33
429.00,74.87
428.00,75.21
427.00,75.59
426.00,76.24
425.00,77.15
424.00,78.08
423.00,78.80
422.00,79.16
421.00,79.25
420.00,79.29
419.00,79.56
418.00,80.04
417.00,80.43
416.00,80.61
415.00,80.71
414.00,80.81
413.00,80.88
412.00,80.83
411.00,80.67
410.00,80.56
409.00,80.76
408.00,81.27
407.00,81.73
406.00,81.56
405.00,80.59
404.00,79.27
403.00,78.27
402.00,77.98
401.00,78.11
400.00,78.00
