Created as New Dataset,Sample 715 By Administrator Date Monday, September 21 2026
cm-1,%T
4000.00,99.61
3999.00,99.61
3998.00,99.61
3997.00,99.61
3996.00,99.61
3995.00,99.61
3994.00,99.61
3993.00,99.60
3992.00,99.60
3991.00,99.60
3990.00,99.61
3989.00,99.61
3988.00,99.62
3987.00,99.62
3986.00,99.63
3985.00,99.63
3984.00,99.63
3983.00,99.62
3982.00,99.62
3981.00,99.61
3980.00,99.61
3979.00,99.61
3978.00,99.61
3977.00,99.61
3976.00,99.62
3975.00,99.62
3974.00,99.62
3973.00,99.62
3972.00,99.62
3971.00,99.62
3970.00,99.62
3969.00,99.62
3968.00,99.62
3967.00,99.62
3966.00,99.62
3965.00,99.61
3964.00,99.61
3963.00,99.61
3962.00,99.61
3961.00,99.62
3960.00,99.62
3959.00,99.62
3958.00,99.61
3957.00,99.61
3956.00,99.60
3955.00,99.60
3954.00,99.60
3953.00,99.60
3952.00,99.61
3951.00,99.61
3950.00,99.61
3949.00,99.61
3948.00,99.62
3947.00,99.62
3946.00,99.62
3945.00,99.62
3944.00,99.62
3943.00,99.62
3942.00,99.61
3941.00,99.61
3940.00,99.60
3939.00,99.60
3938.00,99.60
3937.00,99.60
3936.00,99.60
3935.00,99.60
3934.00,99.60
3933.00,99.60
3932.00,99.60
3931.00,99.60
3930.00,99.60
3929.00,99.60
3928.00,99.61
3927.00,99.61
3926.00,99.61
3925.00,99.62
3924.00,99.62
3923.00,99.62
3922.00,99.62
3921.00,99.62
3920.00,99.62
3919.00,99.62
3918.00,99.62
3917.00,99.62
3916.00,99.62
3915.00,99.62
3914.00,99.62
3913.00,99.62
3912.00,99.62
3911.00,99.62
3910.00,99.63
3909.00,99.63
3908.00,99.63
3907.00,99.63
3906.00,99.63
3905.00,99.62
3904.00,99.62
3903.00,99.62
3902.00,99.62
3901.00,99.62
3900.00,99.62
3899.00,99.63
3898.00,99.63
3897.00,99.63
3896.00,99.63
3895.00,99.63
3894.00,99.63
3893.00,99.63
3892.00,99.63
3891.00,99.63
3890.00,99.63
3889.00,99.63
3888.00,99.63
3887.00,99.62
3886.00,99.62
3885.00,99.62
3884.00,99.63
3883.00,99.63
3882.00,99.64
3881.00,99.63
3880.00,99.63
3879.00,99.63
3878.00,99.63
3877.00,99.63
3876.00,99.63
3875.00,99.63
3874.00,99.63
3873.00,99.62
3872.00,99.61
3871.00,99.61
3870.00,99.61
3869.00,99.61
3868.00,99.61
3867.00,99.61
3866.00,99.60
3865.00,99.60
3864.00,99.60
3863.00,99.61
3862.00,99.61
3861.00,99.61
3860.00,99.62
3859.00,99.62
3858.00,99.62
3857.00,99.63
3856.00,99.64
3855.00,99.64
3854.00,99.64
3853.00,99.64
3852.00,99.64
3851.00,99.64
3850.00,99.64
3849.00,99.64
3848.00,99.63
3847.00,99.63
3846.00,99.63
3845.00,99.63
3844.00,99.63
3843.00,99.63
3842.00,99.63
3841.00,99.64
3840.00,99.64
3839.00,99.64
3838.00,99.64
3837.00,99.64
3836.00,99.65
3835.00,99.65
3834.00,99.65
3833.00,99.65
3832.00,99.65
3831.00,99.65
3830.00,99.65
3829.00,99.65
3828.00,99.65
3827.00,99.64
3826.00,99.63
3825.00,99.63
3824.00,99.63
3823.00,99.63
3822.00,99.63
3821.00,99.63
3820.00,99.63
3819.00,99.63
3818.00,99.63
3817.00,99.62
3816.00,99.63
3815.00,99.64
3814.00,99.64
3813.00,99.65
3812.00,99.64
3811.00,99.64
3810.00,99.64
3809.00,99.64
3808.00,99.64
3807.00,99.64
3806.00,99.64
3805.00,99.65
3804.00,99.65
3803.00,99.65
3802.00,99.65
3801.00,99.64
3800.00,99.65
3799.00,99.65
3798.00,99.65
3797.00,99.64
3796.00,99.64
3795.00,99.64
3794.00,99.63
3793.00,99.62
3792.00,99.62
3791.00,99.62
3790.00,99.62
3789.00,99.63
3788.00,99.63
3787.00,99.62
3786.00,99.62
3785.00,99.61
3784.00,99.61
3783.00,99.62
3782.00,99.62
3781.00,99.63
3780.00,99.64
3779.00,99.64
3778.00,99.64
3777.00,99.64
3776.00,99.64
3775.00,99.64
3774.00,99.64
3773.00,99.64
3772.00,99.64
3771.00,99.63
3770.00,99.63
3769.00,99.62
3768.00,99.62
3767.00,99.62
3766.00,99.62
3765.00,99.62
3764.00,99.62
3763.00,99.62
3762.00,99.62
3761.00,99.62
3760.00,99.62
3759.00,99.62
3758.00,99.62
3757.00,99.63
3756.00,99.63
3755.00,99.64
3754.00,99.64
3753.00,99.64
3752.00,99.64
3751.00,99.63
3750.00,99.61
3749.00,99.61
3748.00,99.61
3747.00,99.61
3746.00,99.62
3745.00,99.62
3744.00,99.63
3743.00,99.63
3742.00,99.63
3741.00,99.63
3740.00,99.62
3739.00,99.62
3738.00,99.62
3737.00,99.61
3736.00,99.61
3735.00,99.62
3734.00,99.63
3733.00,99.64
3732.00,99.64
3731.00,99.64
3730.00,99.63
3729.00,99.62
3728.00,99.60
3727.00,99.59
3726.00,99.58
3725.00,99.57
3724.00,99.58
3723.00,99.59
3722.00,99.60
3721.00,99.61
3720.00,99.62
3719.00,99.62
3718.00,99.62
3717.00,99.62
3716.00,99.62
3715.00,99.61
3714.00,99.60
3713.00,99.59
3712.00,99.59
3711.00,99.59
3710.00,99.60
3709.00,99.61
3708.00,99.62
3707.00,99.63
3706.00,99.64
3705.00,99.64
3704.00,99.65
3703.00,99.65
3702.00,99.65
3701.00,99.65
3700.00,99.64
3699.00,99.62
3698.00,99.62
3697.00,99.61
3696.00,99.62
3695.00,99.62
3694.00,99.63
3693.00,99.64
3692.00,99.64
3691.00,99.65
3690.00,99.65
3689.00,99.65
3688.00,99.65
3687.00,99.64
3686.00,99.64
3685.00,99.63
3684.00,99.62
3683.00,99.62
3682.00,99.62
3681.00,99.62
3680.00,99.61
3679.00,99.61
3678.00,99.62
3677.00,99.62
3676.00,99.62
3675.00,99.62
3674.00,99.63
3673.00,99.63
3672.00,99.63
3671.00,99.63
3670.00,99.64
3669.00,99.64
3668.00,99.64
3667.00,99.64
3666.00,99.64
3665.00,99.64
3664.00,99.64
3663.00,99.63
3662.00,99.63
3661.00,99.62
3660.00,99.61
3659.00,99.61
3658.00,99.60
3657.00,99.60
3656.00,99.60
3655.00,99.61
3654.00,99.61
3653.00,99.61
3652.00,99.61
3651.00,99.61
3650.00,99.60
3649.00,99.59
3648.00,99.59
3647.00,99.59
3646.00,99.58
3645.00,99.58
3644.00,99.57
3643.00,99.58
3642.00,99.58
3641.00,99.59
3640.00,99.59
3639.00,99.58
3638.00,99.56
3637.00,99.55
3636.00,99.53
3635.00,99.52
3634.00,99.52
3633.00,99.51
3632.00,99.51
3631.00,99.52
3630.00,99.52
3629.00,99.52
3628.00,99.52
3627.00,99.52
3626.00,99.53
3625.00,99.54
3624.00,99.55
3623.00,99.56
3622.00,99.57
3621.00,99.59
3620.00,99.59
3619.00,99.59
3618.00,99.57
3617.00,99.55
3616.00,99.53
3615.00,99.52
3614.00,99.50
3613.00,99.49
3612.00,99.48
3611.00,99.48
3610.00,99.48
3609.00,99.48
3608.00,99.49
3607.00,99.50
3606.00,99.51
3605.00,99.51
3604.00,99.51
3603.00,99.50
3602.00,99.49
3601.00,99.49
3600.00,99.48
3599.00,99.47
3598.00,99.46
3597.00,99.45
3596.00,99.44
3595.00,99.43
3594.00,99.42
3593.00,99.41
3592.00,99.41
3591.00,99.41
3590.00,99.41
3589.00,99.41
3588.00,99.41
3587.00,99.41
3586.00,99.41
3585.00,99.41
3584.00,99.41
3583.00,99.41
3582.00,99.41
3581.00,99.41
3580.00,99.41
3579.00,99.41
3578.00,99.42
3577.00,99.43
3576.00,99.44
3575.00,99.44
3574.00,99.44
3573.00,99.43
3572.00,99.43
3571.00,99.42
3570.00,99.42
3569.00,99.41
3568.00,99.40
3567.00,99.39
3566.00,99.38
3565.00,99.38
3564.00,99.37
3563.00,99.37
3562.00,99.36
3561.00,99.36
3560.00,99.37
3559.00,99.37
3558.00,99.37
3557.00,99.36
3556.00,99.36
3555.00,99.35
3554.00,99.34
3553.00,99.34
3552.00,99.34
3551.00,99.34
3550.00,99.34
3549.00,99.32
3548.00,99.31
3547.00,99.30
3546.00,99.29
3545.00,99.30
3544.00,99.30
3543.00,99.31
3542.00,99.31
3541.00,99.31
3540.00,99.31
3539.00,99.31
3538.00,99.31
3537.00,99.31
3536.00,99.31
3535.00,99.30
3534.00,99.30
3533.00,99.30
3532.00,99.29
3531.00,99.28
3530.00,99.27
3529.00,99.25
3528.00,99.24
3527.00,99.23
3526.00,99.23
3525.00,99.24
3524.00,99.24
3523.00,99.25
3522.00,99.25
3521.00,99.25
3520.00,99.25
3519.00,99.25
3518.00,99.24
3517.00,99.23
3516.00,99.21
3515.00,99.21
3514.00,99.20
3513.00,99.21
3512.00,99.20
3511.00,99.20
3510.00,99.19
3509.00,99.19
3508.00,99.19
3507.00,99.19
3506.00,99.19
3505.00,99.19
3504.00,99.18
3503.00,99.17
3502.00,99.16
3501.00,99.16
3500.00,99.16
3499.00,99.17
3498.00,99.18
3497.00,99.17
3496.00,99.16
3495.00,99.15
3494.00,99.14
3493.00,99.13
3492.00,99.13
3491.00,99.13
3490.00,99.13
3489.00,99.13
3488.00,99.13
3487.00,99.13
3486.00,99.12
3485.00,99.12
3484.00,99.12
3483.00,99.12
3482.00,99.12
3481.00,99.12
3480.00,99.12
3479.00,99.12
3478.00,99.11
3477.00,99.11
3476.00,99.10
3475.00,99.10
3474.00,99.10
3473.00,99.10
3472.00,99.09
3471.00,99.09
3470.00,99.08
3469.00,99.08
3468.00,99.08
3467.00,99.08
3466.00,99.08
3465.00,99.07
3464.00,99.07
3463.00,99.07
3462.00,99.06
3461.00,99.06
3460.00,99.05
3459.00,99.05
3458.00,99.04
3457.00,99.03
3456.00,99.02
3455.00,99.02
3454.00,99.02
3453.00,99.03
3452.00,99.02
3451.00,99.02
3450.00,99.02
3449.00,99.02
3448.00,99.01
3447.00,99.01
3446.00,99.00
3445.00,99.00
3444.00,98.99
3443.00,98.99
3442.00,98.99
3441.00,99.00
3440.00,99.00
3439.00,99.00
3438.00,98.99
3437.00,98.99
3436.00,98.98
3435.00,98.98
3434.00,98.98
3433.00,98.97
3432.00,98.97
3431.00,98.97
3430.00,98.97
3429.00,98.97
3428.00,98.96
3427.00,98.96
3426.00,98.95
3425.00,98.95
3424.00,98.94
3423.00,98.93
3422.00,98.93
3421.00,98.93
3420.00,98.93
3419.00,98.93
3418.00,98.93
3417.00,98.93
3416.00,98.93
3415.00,98.93
3414.00,98.93
3413.00,98.93
3412.00,98.92
3411.00,98.92
3410.00,98.91
3409.00,98.91
3408.00,98.90
3407.00,98.90
3406.00,98.89
3405.00,98.89
3404.00,98.89
3403.00,98.88
3402.00,98.88
3401.00,98.88
3400.00,98.87
3399.00,98.87
3398.00,98.87
3397.00,98.87
3396.00,98.87
3395.00,98.87
3394.00,98.86
3393.00,98.86
3392.00,98.85
3391.00,98.85
3390.00,98.85
3389.00,98.85
3388.00,98.85
3387.00,98.85
3386.00,98.84
3385.00,98.84
3384.00,98.84
3383.00,98.83
3382.00,98.83
3381.00,98.82
3380.00,98.82
3379.00,98.81
3378.00,98.81
3377.00,98.81
3376.00,98.81
3375.00,98.80
3374.00,98.80
3373.00,98.80
3372.00,98.79
3371.00,98.79
3370.00,98.78
3369.00,98.77
3368.00,98.76
3367.00,98.76
3366.00,98.75
3365.00,98.74
3364.00,98.73
3363.00,98.73
3362.00,98.72
3361.00,98.72
3360.00,98.72
3359.00,98.71
3358.00,98.70
3357.00,98.69
3356.00,98.68
3355.00,98.67
3354.00,98.67
3353.00,98.66
3352.00,98.65
3351.00,98.64
3350.00,98.63
3349.00,98.63
3348.00,98.62
3347.00,98.61
3346.00,98.60
3345.00,98.59
3344.00,98.59
3343.00,98.58
3342.00,98.57
3341.00,98.55
3340.00,98.53
3339.00,98.52
3338.00,98.50
3337.00,98.48
3336.00,98.46
3335.00,98.44
3334.00,98.42
3333.00,98.40
3332.00,98.38
3331.00,98.36
3330.00,98.34
3329.00,98.32
3328.00,98.29
3327.00,98.26
3326.00,98.23
3325.00,98.19
3324.00,98.16
3323.00,98.12
3322.00,98.08
3321.00,98.04
3320.00,98.00
3319.00,97.95
3318.00,97.90
3317.00,97.86
3316.00,97.81
3315.00,97.77
3314.00,97.71
3313.00,97.66
3312.00,97.61
3311.00,97.55
3310.00,97.50
3309.00,97.45
3308.00,97.40
3307.00,97.35
3306.00,97.30
3305.00,97.25
3304.00,97.20
3303.00,97.15
3302.00,97.11
3301.00,97.08
3300.00,97.06
3299.00,97.06
3298.00,97.07
3297.00,97.08
3296.00,97.09
3295.00,97.11
3294.00,97.14
3293.00,97.17
3292.00,97.20
3291.00,97.22
3290.00,97.24
3289.00,97.25
3288.00,97.28
3287.00,97.31
3286.00,97.34
3285.00,97.38
3284.00,97.41
3283.00,97.44
3282.00,97.47
3281.00,97.50
3280.00,97.53
3279.00,97.56
3278.00,97.59
3277.00,97.63
3276.00,97.66
3275.00,97.69
3274.00,97.73
3273.00,97.76
3272.00,97.80
3271.00,97.82
3270.00,97.82
3269.00,97.82
3268.00,97.82
3267.00,97.82
3266.00,97.83
3265.00,97.85
3264.00,97.87
3263.00,97.90
3262.00,97.92
3261.00,97.94
3260.00,97.96
3259.00,97.99
3258.00,98.02
3257.00,98.05
3256.00,98.08
3255.00,98.10
3254.00,98.12
3253.00,98.13
3252.00,98.14
3251.00,98.16
3250.00,98.19
3249.00,98.22
3248.00,98.24
3247.00,98.26
3246.00,98.28
3245.00,98.28
3244.00,98.29
3243.00,98.30
3242.00,98.32
3241.00,98.34
3240.00,98.36
3239.00,98.38
3238.00,98.40
3237.00,98.42
3236.00,98.45
3235.00,98.47
3234.00,98.49
3233.00,98.50
3232.00,98.50
3231.00,98.50
3230.00,98.51
3229.00,98.51
3228.00,98.52
3227.00,98.53
3226.00,98.54
3225.00,98.55
3224.00,98.57
3223.00,98.58
3222.00,98.58
3221.00,98.59
3220.00,98.59
3219.00,98.59
3218.00,98.59
3217.00,98.60
3216.00,98.60
3215.00,98.61
3214.00,98.61
3213.00,98.62
3212.00,98.63
3211.00,98.63
3210.00,98.64
3209.00,98.65
3208.00,98.66
3207.00,98.66
3206.00,98.66
3205.00,98.66
3204.00,98.67
3203.00,98.68
3202.00,98.69
3201.00,98.69
3200.00,98.69
3199.00,98.69
3198.00,98.69
3197.00,98.70
3196.00,98.71
3195.00,98.72
3194.00,98.72
3193.00,98.73
3192.00,98.74
3191.00,98.74
3190.00,98.74
3189.00,98.75
3188.00,98.75
3187.00,98.76
3186.00,98.76
3185.00,98.77
3184.00,98.78
3183.00,98.79
3182.00,98.80
3181.00,98.81
3180.00,98.83
3179.00,98.84
3178.00,98.85
3177.00,98.85
3176.00,98.84
3175.00,98.84
3174.00,98.85
3173.00,98.86
3172.00,98.87
3171.00,98.88
3170.00,98.89
3169.00,98.90
3168.00,98.90
3167.00,98.91
3166.00,98.91
3165.00,98.91
3164.00,98.91
3163.00,98.92
3162.00,98.92
3161.00,98.92
3160.00,98.93
3159.00,98.93
3158.00,98.94
3157.00,98.94
3156.00,98.95
3155.00,98.96
3154.00,98.98
3153.00,98.99
3152.00,99.00
3151.00,99.00
3150.00,99.00
3149.00,98.99
3148.00,98.99
3147.00,98.99
3146.00,98.99
3145.00,98.99
3144.00,98.99
3143.00,99.00
3142.00,99.01
3141.00,99.02
3140.00,99.03
3139.00,99.03
3138.00,99.03
3137.00,99.02
3136.00,99.01
3135.00,99.01
3134.00,99.01
3133.00,99.01
3132.00,99.02
3131.00,99.02
3130.00,99.02
3129.00,99.01
3128.00,99.01
3127.00,99.00
3126.00,99.00
3125.00,99.01
3124.00,99.01
3123.00,99.02
3122.00,99.03
3121.00,99.04
3120.00,99.05
3119.00,99.06
3118.00,99.07
3117.00,99.07
3116.00,99.06
3115.00,99.05
3114.00,99.03
3113.00,99.02
3112.00,99.01
3111.00,99.00
3110.00,98.99
3109.00,98.99
3108.00,98.98
3107.00,98.97
3106.00,98.96
3105.00,98.96
3104.00,98.96
3103.00,98.96
3102.00,98.96
3101.00,98.96
3100.00,98.96
3099.00,98.95
3098.00,98.94
3097.00,98.93
3096.00,98.92
3095.00,98.91
3094.00,98.91
3093.00,98.92
3092.00,98.93
3091.00,98.93
3090.00,98.93
3089.00,98.93
3088.00,98.92
3087.00,98.91
3086.00,98.92
3085.00,98.92
3084.00,98.92
3083.00,98.92
3082.00,98.93
3081.00,98.93
3080.00,98.93
3079.00,98.94
3078.00,98.93
3077.00,98.92
3076.00,98.90
3075.00,98.88
3074.00,98.86
3073.00,98.86
3072.00,98.86
3071.00,98.86
3070.00,98.87
3069.00,98.89
3068.00,98.90
3067.00,98.90
3066.00,98.90
3065.00,98.89
3064.00,98.89
3063.00,98.88
3062.00,98.87
3061.00,98.87
3060.00,98.88
3059.00,98.89
3058.00,98.91
3057.00,98.92
3056.00,98.93
3055.00,98.94
3054.00,98.95
3053.00,98.96
3052.00,98.97
3051.00,98.99
3050.00,99.00
3049.00,99.01
3048.00,99.02
3047.00,99.04
3046.00,99.05
3045.00,99.07
3044.00,99.09
3043.00,99.10
3042.00,99.11
3041.00,99.11
3040.00,99.11
3039.00,99.10
3038.00,99.10
3037.00,99.10
3036.00,99.11
3035.00,99.13
3034.00,99.14
3033.00,99.14
3032.00,99.14
3031.00,99.14
3030.00,99.13
3029.00,99.13
3028.00,99.13
3027.00,99.14
3026.00,99.15
3025.00,99.16
3024.00,99.17
3023.00,99.17
3022.00,99.17
3021.00,99.17
3020.00,99.17
3019.00,99.18
3018.00,99.18
3017.00,99.19
3016.00,99.20
3015.00,99.20
3014.00,99.21
3013.00,99.21
3012.00,99.21
3011.00,99.21
3010.00,99.21
3009.00,99.20
3008.00,99.19
3007.00,99.19
3006.00,99.18
3005.00,99.18
3004.00,99.18
3003.00,99.18
3002.00,99.18
3001.00,99.19
3000.00,99.19
2999.00,99.19
2998.00,99.18
2997.00,99.18
2996.00,99.17
2995.00,99.17
2994.00,99.17
2993.00,99.16
2992.00,99.16
2991.00,99.15
2990.00,99.14
2989.00,99.13
2988.00,99.12
2987.00,99.11
2986.00,99.10
2985.00,99.09
2984.00,99.08
2983.00,99.07
2982.00,99.05
2981.00,99.04
2980.00,99.02
2979.00,99.01
2978.00,98.99
2977.00,98.96
2976.00,98.94
2975.00,98.91
2974.00,98.88
2973.00,98.85
2972.00,98.82
2971.00,98.78
2970.00,98.75
2969.00,98.71
2968.00,98.68
2967.00,98.64
2966.00,98.61
2965.00,98.58
2964.00,98.55
2963.00,98.52
2962.00,98.49
2961.00,98.45
2960.00,98.42
2959.00,98.39
2958.00,98.36
2957.00,98.32
2956.00,98.29
2955.00,98.25
2954.00,98.21
2953.00,98.16
2952.00,98.11
2951.00,98.04
2950.00,97.98
2949.00,97.92
2948.00,97.86
2947.00,97.80
2946.00,97.75
2945.00,97.69
2944.00,97.62
2943.00,97.55
2942.00,97.47
2941.00,97.39
2940.00,97.31
2939.00,97.24
2938.00,97.17
2937.00,97.10
2936.00,97.02
2935.00,96.95
2934.00,96.89
2933.00,96.84
2932.00,96.80
2931.00,96.77
2930.00,96.74
2929.00,96.71
2928.00,96.69
2927.00,96.67
2926.00,96.66
2925.00,96.67
2924.00,96.69
2923.00,96.73
2922.00,96.79
2921.00,96.86
2920.00,96.95
2919.00,97.05
2918.00,97.15
2917.00,97.24
2916.00,97.32
2915.00,97.38
2914.00,97.43
2913.00,97.48
2912.00,97.52
2911.00,97.57
2910.00,97.62
2909.00,97.66
2908.00,97.71
2907.00,97.76
2906.00,97.81
2905.00,97.85
2904.00,97.90
2903.00,97.94
2902.00,97.97
2901.00,98.01
2900.00,98.05
2899.00,98.08
2898.00,98.12
2897.00,98.16
2896.00,98.19
2895.00,98.22
2894.00,98.25
2893.00,98.28
2892.00,98.31
2891.00,98.33
2890.00,98.35
2889.00,98.37
2888.00,98.38
2887.00,98.39
2886.00,98.40
2885.00,98.40
2884.00,98.39
2883.00,98.38
2882.00,98.35
2881.00,98.33
2880.00,98.30
2879.00,98.27
2878.00,98.24
2877.00,98.21
2876.00,98.18
2875.00,98.15
2874.00,98.11
2873.00,98.08
2872.00,98.06
2871.00,98.03
2870.00,98.01
2869.00,97.99
2868.00,97.97
2867.00,97.95
2866.00,97.93
2865.00,97.89
2864.00,97.85
2863.00,97.81
2862.00,97.77
2861.00,97.72
2860.00,97.67
2859.00,97.62
2858.00,97.57
2857.00,97.53
2856.00,97.51
2855.00,97.50
2854.00,97.51
2853.00,97.55
2852.00,97.60
2851.00,97.68
2850.00,97.78
2849.00,97.89
2848.00,97.99
2847.00,98.10
2846.00,98.21
2845.00,98.31
2844.00,98.40
2843.00,98.48
2842.00,98.56
2841.00,98.62
2840.00,98.68
2839.00,98.72
2838.00,98.76
2837.00,98.79
2836.00,98.81
2835.00,98.84
2834.00,98.86
2833.00,98.88
2832.00,98.89
2831.00,98.91
2830.00,98.92
2829.00,98.93
2828.00,98.95
2827.00,98.97
2826.00,98.98
2825.00,98.99
2824.00,99.00
2823.00,99.01
2822.00,99.01
2821.00,99.02
2820.00,99.03
2819.00,99.04
2818.00,99.04
2817.00,99.05
2816.00,99.05
2815.00,99.06
2814.00,99.07
2813.00,99.07
2812.00,99.08
2811.00,99.09
2810.00,99.10
2809.00,99.11
2808.00,99.11
2807.00,99.12
2806.00,99.13
2805.00,99.13
2804.00,99.13
2803.00,99.13
2802.00,99.13
2801.00,99.14
2800.00,99.14
2799.00,99.15
2798.00,99.15
2797.00,99.16
2796.00,99.16
2795.00,99.16
2794.00,99.17
2793.00,99.18
2792.00,99.18
2791.00,99.19
2790.00,99.19
2789.00,99.19
2788.00,99.19
2787.00,99.19
2786.00,99.19
2785.00,99.20
2784.00,99.20
2783.00,99.20
2782.00,99.20
2781.00,99.21
2780.00,99.21
2779.00,99.21
2778.00,99.22
2777.00,99.22
2776.00,99.23
2775.00,99.23
2774.00,99.23
2773.00,99.23
2772.00,99.23
2771.00,99.23
2770.00,99.22
2769.00,99.22
2768.00,99.22
2767.00,99.23
2766.00,99.23
2765.00,99.23
2764.00,99.23
2763.00,99.23
2762.00,99.23
2761.00,99.23
2760.00,99.23
2759.00,99.23
2758.00,99.23
2757.00,99.23
2756.00,99.23
2755.00,99.23
2754.00,99.24
2753.00,99.24
2752.00,99.25
2751.00,99.25
2750.00,99.26
2749.00,99.26
2748.00,99.26
2747.00,99.26
2746.00,99.26
2745.00,99.25
2744.00,99.25
2743.00,99.25
2742.00,99.25
2741.00,99.25
2740.00,99.26
2739.00,99.26
2738.00,99.26
2737.00,99.27
2736.00,99.27
2735.00,99.27
2734.00,99.27
2733.00,99.27
2732.00,99.28
2731.00,99.28
2730.00,99.28
2729.00,99.28
2728.00,99.29
2727.00,99.29
2726.00,99.30
2725.00,99.30
2724.00,99.30
2723.00,99.31
2722.00,99.31
2721.00,99.31
2720.00,99.31
2719.00,99.31
2718.00,99.32
2717.00,99.31
2716.00,99.31
2715.00,99.31
2714.00,99.31
2713.00,99.31
2712.00,99.31
2711.00,99.31
2710.00,99.31
2709.00,99.31
2708.00,99.31
2707.00,99.32
2706.00,99.32
2705.00,99.33
2704.00,99.33
2703.00,99.33
2702.00,99.33
2701.00,99.32
2700.00,99.32
2699.00,99.32
2698.00,99.32
2697.00,99.32
2696.00,99.32
2695.00,99.33
2694.00,99.33
2693.00,99.33
2692.00,99.32
2691.00,99.32
2690.00,99.32
2689.00,99.32
2688.00,99.32
2687.00,99.32
2686.00,99.32
2685.00,99.33
2684.00,99.33
2683.00,99.33
2682.00,99.34
2681.00,99.34
2680.00,99.34
2679.00,99.34
2678.00,99.34
2677.00,99.34
2676.00,99.34
2675.00,99.34
2674.00,99.34
2673.00,99.34
2672.00,99.34
2671.00,99.34
2670.00,99.34
2669.00,99.33
2668.00,99.33
2667.00,99.33
2666.00,99.33
2665.00,99.33
2664.00,99.33
2663.00,99.33
2662.00,99.32
2661.00,99.32
2660.00,99.32
2659.00,99.31
2658.00,99.31
2657.00,99.31
2656.00,99.30
2655.00,99.30
2654.00,99.30
2653.00,99.31
2652.00,99.31
2651.00,99.32
2650.00,99.32
2649.00,99.33
2648.00,99.33
2647.00,99.33
2646.00,99.33
2645.00,99.33
2644.00,99.32
2643.00,99.32
2642.00,99.33
2641.00,99.33
2640.00,99.33
2639.00,99.33
2638.00,99.33
2637.00,99.33
2636.00,99.34
2635.00,99.34
2634.00,99.34
2633.00,99.34
2632.00,99.34
2631.00,99.34
2630.00,99.34
2629.00,99.35
2628.00,99.36
2627.00,99.36
2626.00,99.36
2625.00,99.37
2624.00,99.36
2623.00,99.36
2622.00,99.36
2621.00,99.36
2620.00,99.36
2619.00,99.37
2618.00,99.37
2617.00,99.38
2616.00,99.38
2615.00,99.37
2614.00,99.37
2613.00,99.36
2612.00,99.36
2611.00,99.36
2610.00,99.36
2609.00,99.37
2608.00,99.37
2607.00,99.37
2606.00,99.37
2605.00,99.37
2604.00,99.38
2603.00,99.38
2602.00,99.38
2601.00,99.39
2600.00,99.39
2599.00,99.39
2598.00,99.40
2597.00,99.40
2596.00,99.40
2595.00,99.40
2594.00,99.40
2593.00,99.41
2592.00,99.41
2591.00,99.40
2590.00,99.39
2589.00,99.39
2588.00,99.39
2587.00,99.39
2586.00,99.39
2585.00,99.39
2584.00,99.38
2583.00,99.38
2582.00,99.38
2581.00,99.39
2580.00,99.40
2579.00,99.41
2578.00,99.42
2577.00,99.42
2576.00,99.42
2575.00,99.43
2574.00,99.43
2573.00,99.44
2572.00,99.44
2571.00,99.44
2570.00,99.44
2569.00,99.44
2568.00,99.43
2567.00,99.42
2566.00,99.41
2565.00,99.41
2564.00,99.41
2563.00,99.42
2562.00,99.43
2561.00,99.43
2560.00,99.43
2559.00,99.43
2558.00,99.44
2557.00,99.44
2556.00,99.44
2555.00,99.44
2554.00,99.44
2553.00,99.43
2552.00,99.44
2551.00,99.44
2550.00,99.44
2549.00,99.45
2548.00,99.45
2547.00,99.45
2546.00,99.45
2545.00,99.45
2544.00,99.44
2543.00,99.44
2542.00,99.44
2541.00,99.44
2540.00,99.44
2539.00,99.44
2538.00,99.44
2537.00,99.44
2536.00,99.45
2535.00,99.45
2534.00,99.46
2533.00,99.46
2532.00,99.46
2531.00,99.45
2530.00,99.45
2529.00,99.45
2528.00,99.45
2527.00,99.45
2526.00,99.45
2525.00,99.45
2524.00,99.45
2523.00,99.46
2522.00,99.46
2521.00,99.47
2520.00,99.46
2519.00,99.46
2518.00,99.46
2517.00,99.46
2516.00,99.46
2515.00,99.47
2514.00,99.47
2513.00,99.47
2512.00,99.47
2511.00,99.47
2510.00,99.46
2509.00,99.46
2508.00,99.47
2507.00,99.47
2506.00,99.48
2505.00,99.48
2504.00,99.48
2503.00,99.49
2502.00,99.49
2501.00,99.49
2500.00,99.48
2499.00,99.48
2498.00,99.48
2497.00,99.48
2496.00,99.47
2495.00,99.48
2494.00,99.49
2493.00,99.50
2492.00,99.50
2491.00,99.50
2490.00,99.50
2489.00,99.50
2488.00,99.50
2487.00,99.50
2486.00,99.49
2485.00,99.49
2484.00,99.49
2483.00,99.49
2482.00,99.49
2481.00,99.49
2480.00,99.48
2479.00,99.48
2478.00,99.48
2477.00,99.49
2476.00,99.50
2475.00,99.50
2474.00,99.50
2473.00,99.49
2472.00,99.48
2471.00,99.48
2470.00,99.48
2469.00,99.49
2468.00,99.49
2467.00,99.49
2466.00,99.50
2465.00,99.51
2464.00,99.51
2463.00,99.52
2462.00,99.52
2461.00,99.51
2460.00,99.50
2459.00,99.49
2458.00,99.48
2457.00,99.47
2456.00,99.47
2455.00,99.47
2454.00,99.48
2453.00,99.49
2452.00,99.50
2451.00,99.50
2450.00,99.50
2449.00,99.49
2448.00,99.49
2447.00,99.49
2446.00,99.50
2445.00,99.51
2444.00,99.51
2443.00,99.51
2442.00,99.51
2441.00,99.52
2440.00,99.53
2439.00,99.54
2438.00,99.54
2437.00,99.54
2436.00,99.54
2435.00,99.54
2434.00,99.53
2433.00,99.53
2432.00,99.53
2431.00,99.53
2430.00,99.52
2429.00,99.52
2428.00,99.53
2427.00,99.53
2426.00,99.53
2425.00,99.53
2424.00,99.52
2423.00,99.52
2422.00,99.53
2421.00,99.53
2420.00,99.54
2419.00,99.54
2418.00,99.54
2417.00,99.53
2416.00,99.53
2415.00,99.53
2414.00,99.54
2413.00,99.54
2412.00,99.54
2411.00,99.54
2410.00,99.53
2409.00,99.53
2408.00,99.52
2407.00,99.53
2406.00,99.53
2405.00,99.55
2404.00,99.56
2403.00,99.56
2402.00,99.56
2401.00,99.56
2400.00,99.56
2399.00,99.56
2398.00,99.55
2397.00,99.55
2396.00,99.55
2395.00,99.55
2394.00,99.56
2393.00,99.56
2392.00,99.55
2391.00,99.55
2390.00,99.55
2389.00,99.55
2388.00,99.55
2387.00,99.55
2386.00,99.54
2385.00,99.54
2384.00,99.54
2383.00,99.55
2382.00,99.55
2381.00,99.55
2380.00,99.55
2379.00,99.55
2378.00,99.55
2377.00,99.56
2376.00,99.56
2375.00,99.57
2374.00,99.58
2373.00,99.58
2372.00,99.57
2371.00,99.55
2370.00,99.53
2369.00,99.51
2368.00,99.50
2367.00,99.50
2366.00,99.51
2365.00,99.52
2364.00,99.53
2363.00,99.52
2362.00,99.51
2361.00,99.50
2360.00,99.51
2359.00,99.51
2358.00,99.50
2357.00,99.48
2356.00,99.48
2355.00,99.50
2354.00,99.53
2353.00,99.55
2352.00,99.54
2351.00,99.49
2350.00,99.43
2349.00,99.38
2348.00,99.36
2347.00,99.38
2346.00,99.43
2345.00,99.46
2344.00,99.48
2343.00,99.48
2342.00,99.47
2341.00,99.47
2340.00,99.47
2339.00,99.47
2338.00,99.47
2337.00,99.48
2336.00,99.48
2335.00,99.47
2334.00,99.47
2333.00,99.47
2332.00,99.49
2331.00,99.50
2330.00,99.51
2329.00,99.51
2328.00,99.49
2327.00,99.46
2326.00,99.42
2325.00,99.39
2324.00,99.37
2323.00,99.36
2322.00,99.38
2321.00,99.41
2320.00,99.43
2319.00,99.44
2318.00,99.45
2317.00,99.45
2316.00,99.46
2315.00,99.47
2314.00,99.48
2313.00,99.49
2312.00,99.50
2311.00,99.50
2310.00,99.50
2309.00,99.50
2308.00,99.50
2307.00,99.50
2306.00,99.50
2305.00,99.49
2304.00,99.49
2303.00,99.48
2302.00,99.48
2301.00,99.48
2300.00,99.48
2299.00,99.49
2298.00,99.48
2297.00,99.48
2296.00,99.48
2295.00,99.47
2294.00,99.47
2293.00,99.46
2292.00,99.45
2291.00,99.44
2290.00,99.44
2289.00,99.43
2288.00,99.43
2287.00,99.43
2286.00,99.43
2285.00,99.44
2284.00,99.44
2283.00,99.45
2282.00,99.46
2281.00,99.47
2280.00,99.48
2279.00,99.48
2278.00,99.48
2277.00,99.48
2276.00,99.47
2275.00,99.48
2274.00,99.48
2273.00,99.49
2272.00,99.50
2271.00,99.50
2270.00,99.49
2269.00,99.49
2268.00,99.50
2267.00,99.51
2266.00,99.52
2265.00,99.53
2264.00,99.54
2263.00,99.54
2262.00,99.54
2261.00,99.53
2260.00,99.52
2259.00,99.51
2258.00,99.49
2257.00,99.49
2256.00,99.50
2255.00,99.52
2254.00,99.53
2253.00,99.53
2252.00,99.53
2251.00,99.54
2250.00,99.55
2249.00,99.56
2248.00,99.57
2247.00,99.58
2246.00,99.58
2245.00,99.57
2244.00,99.56
2243.00,99.55
2242.00,99.54
2241.00,99.53
2240.00,99.54
2239.00,99.55
2238.00,99.56
2237.00,99.57
2236.00,99.57
2235.00,99.56
2234.00,99.54
2233.00,99.53
2232.00,99.54
2231.00,99.56
2230.00,99.57
2229.00,99.59
2228.00,99.60
2227.00,99.60
2226.00,99.59
2225.00,99.58
2224.00,99.57
2223.00,99.57
2222.00,99.59
2221.00,99.60
2220.00,99.61
2219.00,99.62
2218.00,99.63
2217.00,99.63
2216.00,99.61
2215.00,99.59
2214.00,99.57
2213.00,99.56
2212.00,99.56
2211.00,99.55
2210.00,99.54
2209.00,99.52
2208.00,99.52
2207.00,99.52
2206.00,99.53
2205.00,99.53
2204.00,99.53
2203.00,99.53
2202.00,99.54
2201.00,99.55
2200.00,99.58
2199.00,99.59
2198.00,99.59
2197.00,99.56
2196.00,99.54
2195.00,99.55
2194.00,99.58
2193.00,99.63
2192.00,99.65
2191.00,99.64
2190.00,99.61
2189.00,99.57
2188.00,99.54
2187.00,99.53
2186.00,99.52
2185.00,99.53
2184.00,99.55
2183.00,99.57
2182.00,99.60
2181.00,99.61
2180.00,99.62
2179.00,99.61
2178.00,99.60
2177.00,99.61
2176.00,99.63
2175.00,99.66
2174.00,99.66
2173.00,99.64
2172.00,99.60
2171.00,99.55
2170.00,99.50
2169.00,99.46
2168.00,99.42
2167.00,99.40
2166.00,99.40
2165.00,99.43
2164.00,99.47
2163.00,99.49
2162.00,99.51
2161.00,99.54
2160.00,99.59
2159.00,99.67
2158.00,99.74
2157.00,99.77
2156.00,99.78
2155.00,99.78
2154.00,99.76
2153.00,99.73
2152.00,99.72
2151.00,99.71
2150.00,99.71
2149.00,99.70
2148.00,99.67
2147.00,99.66
2146.00,99.67
2145.00,99.71
2144.00,99.74
2143.00,99.76
2142.00,99.76
2141.00,99.74
2140.00,99.71
2139.00,99.68
2138.00,99.67
2137.00,99.67
2136.00,99.69
2135.00,99.73
2134.00,99.77
2133.00,99.79
2132.00,99.78
2131.00,99.77
2130.00,99.76
2129.00,99.75
2128.00,99.73
2127.00,99.72
2126.00,99.71
2125.00,99.69
2124.00,99.66
2123.00,99.63
2122.00,99.62
2121.00,99.61
2120.00,99.61
2119.00,99.60
2118.00,99.58
2117.00,99.56
2116.00,99.54
2115.00,99.54
2114.00,99.55
2113.00,99.56
2112.00,99.57
2111.00,99.57
2110.00,99.57
2109.00,99.57
2108.00,99.56
2107.00,99.57
2106.00,99.57
2105.00,99.59
2104.00,99.61
2103.00,99.62
2102.00,99.62
2101.00,99.61
2100.00,99.60
2099.00,99.58
2098.00,99.57
2097.00,99.59
2096.00,99.62
2095.00,99.64
2094.00,99.66
2093.00,99.65
2092.00,99.64
2091.00,99.63
2090.00,99.62
2089.00,99.61
2088.00,99.60
2087.00,99.59
2086.00,99.59
2085.00,99.57
2084.00,99.56
2083.00,99.54
2082.00,99.54
2081.00,99.55
2080.00,99.56
2079.00,99.57
2078.00,99.57
2077.00,99.58
2076.00,99.60
2075.00,99.62
2074.00,99.64
2073.00,99.63
2072.00,99.62
2071.00,99.60
2070.00,99.59
2069.00,99.58
2068.00,99.58
2067.00,99.57
2066.00,99.55
2065.00,99.52
2064.00,99.51
2063.00,99.52
2062.00,99.53
2061.00,99.54
2060.00,99.54
2059.00,99.54
2058.00,99.54
2057.00,99.57
2056.00,99.60
2055.00,99.64
2054.00,99.64
2053.00,99.58
2052.00,99.49
2051.00,99.40
2050.00,99.37
2049.00,99.40
2048.00,99.44
2047.00,99.47
2046.00,99.48
2045.00,99.47
2044.00,99.47
2043.00,99.48
2042.00,99.52
2041.00,99.55
2040.00,99.55
2039.00,99.52
2038.00,99.47
2037.00,99.44
2036.00,99.43
2035.00,99.47
2034.00,99.53
2033.00,99.59
2032.00,99.63
2031.00,99.62
2030.00,99.60
2029.00,99.59
2028.00,99.58
2027.00,99.58
2026.00,99.57
2025.00,99.56
2024.00,99.56
2023.00,99.58
2022.00,99.61
2021.00,99.61
2020.00,99.60
2019.00,99.58
2018.00,99.57
2017.00,99.57
2016.00,99.59
2015.00,99.63
2014.00,99.64
2013.00,99.62
2012.00,99.59
2011.00,99.58
2010.00,99.59
2009.00,99.61
2008.00,99.63
2007.00,99.65
2006.00,99.66
2005.00,99.65
2004.00,99.63
2003.00,99.62
2002.00,99.64
2001.00,99.67
2000.00,99.69
1999.00,99.70
1998.00,99.71
1997.00,99.71
1996.00,99.67
1995.00,99.63
1994.00,99.61
1993.00,99.61
1992.00,99.61
1991.00,99.61
1990.00,99.60
1989.00,99.59
1988.00,99.58
1987.00,99.58
1986.00,99.58
1985.00,99.57
1984.00,99.56
1983.00,99.55
1982.00,99.54
1981.00,99.51
1980.00,99.49
1979.00,99.51
1978.00,99.57
1977.00,99.63
1976.00,99.66
1975.00,99.67
1974.00,99.68
1973.00,99.70
1972.00,99.72
1971.00,99.74
1970.00,99.74
1969.00,99.74
1968.00,99.72
1967.00,99.72
1966.00,99.72
1965.00,99.71
1964.00,99.70
1963.00,99.69
1962.00,99.70
1961.00,99.72
1960.00,99.75
1959.00,99.76
1958.00,99.76
1957.00,99.74
1956.00,99.70
1955.00,99.68
1954.00,99.68
1953.00,99.68
1952.00,99.69
1951.00,99.70
1950.00,99.71
1949.00,99.71
1948.00,99.70
1947.00,99.69
1946.00,99.68
1945.00,99.67
1944.00,99.66
1943.00,99.65
1942.00,99.64
1941.00,99.63
1940.00,99.62
1939.00,99.63
1938.00,99.64
1937.00,99.65
1936.00,99.66
1935.00,99.67
1934.00,99.67
1933.00,99.67
1932.00,99.66
1931.00,99.65
1930.00,99.66
1929.00,99.67
1928.00,99.68
1927.00,99.67
1926.00,99.66
1925.00,99.64
1924.00,99.63
1923.00,99.62
1922.00,99.61
1921.00,99.61
1920.00,99.62
1919.00,99.63
1918.00,99.65
1917.00,99.66
1916.00,99.68
1915.00,99.67
1914.00,99.66
1913.00,99.65
1912.00,99.64
1911.00,99.64
1910.00,99.65
1909.00,99.64
1908.00,99.62
1907.00,99.60
1906.00,99.60
1905.00,99.61
1904.00,99.62
1903.00,99.62
1902.00,99.62
1901.00,99.63
1900.00,99.64
1899.00,99.64
1898.00,99.65
1897.00,99.65
1896.00,99.64
1895.00,99.62
1894.00,99.61
1893.00,99.61
1892.00,99.61
1891.00,99.62
1890.00,99.63
1889.00,99.63
1888.00,99.63
1887.00,99.62
1886.00,99.61
1885.00,99.60
1884.00,99.60
1883.00,99.61
1882.00,99.61
1881.00,99.62
1880.00,99.62
1879.00,99.62
1878.00,99.62
1877.00,99.62
1876.00,99.62
1875.00,99.63
1874.00,99.64
1873.00,99.65
1872.00,99.66
1871.00,99.66
1870.00,99.66
1869.00,99.65
1868.00,99.63
1867.00,99.62
1866.00,99.62
1865.00,99.61
1864.00,99.61
1863.00,99.61
1862.00,99.61
1861.00,99.62
1860.00,99.63
1859.00,99.64
1858.00,99.64
1857.00,99.64
1856.00,99.63
1855.00,99.62
1854.00,99.63
1853.00,99.63
1852.00,99.64
1851.00,99.64
1850.00,99.64
1849.00,99.63
1848.00,99.62
1847.00,99.61
1846.00,99.60
1845.00,99.61
1844.00,99.62
1843.00,99.62
1842.00,99.62
1841.00,99.61
1840.00,99.60
1839.00,99.60
1838.00,99.60
1837.00,99.60
1836.00,99.60
1835.00,99.60
1834.00,99.61
1833.00,99.61
1832.00,99.62
1831.00,99.61
1830.00,99.61
1829.00,99.61
1828.00,99.61
1827.00,99.62
1826.00,99.62
1825.00,99.61
1824.00,99.60
1823.00,99.59
1822.00,99.59
1821.00,99.59
1820.00,99.60
1819.00,99.61
1818.00,99.62
1817.00,99.62
1816.00,99.61
1815.00,99.60
1814.00,99.59
1813.00,99.58
1812.00,99.58
1811.00,99.57
1810.00,99.57
1809.00,99.57
1808.00,99.57
1807.00,99.57
1806.00,99.56
1805.00,99.55
1804.00,99.55
1803.00,99.56
1802.00,99.56
1801.00,99.55
1800.00,99.54
1799.00,99.53
1798.00,99.52
1797.00,99.52
1796.00,99.52
1795.00,99.52
1794.00,99.52
1793.00,99.51
1792.00,99.50
1791.00,99.49
1790.00,99.48
1789.00,99.48
1788.00,99.47
1787.00,99.46
1786.00,99.46
1785.00,99.45
1784.00,99.45
1783.00,99.45
1782.00,99.44
1781.00,99.44
1780.00,99.43
1779.00,99.43
1778.00,99.43
1777.00,99.43
1776.00,99.43
1775.00,99.42
1774.00,99.41
1773.00,99.40
1772.00,99.39
1771.00,99.39
1770.00,99.37
1769.00,99.35
1768.00,99.33
1767.00,99.31
1766.00,99.30
1765.00,99.29
1764.00,99.28
1763.00,99.27
1762.00,99.24
1761.00,99.22
1760.00,99.20
1759.00,99.18
1758.00,99.16
1757.00,99.12
1756.00,99.08
1755.00,99.05
1754.00,99.01
1753.00,98.96
1752.00,98.90
1751.00,98.84
1750.00,98.79
1749.00,98.73
1748.00,98.68
1747.00,98.62
1746.00,98.57
1745.00,98.52
1744.00,98.46
1743.00,98.42
1742.00,98.37
1741.00,98.33
1740.00,98.29
1739.00,98.25
1738.00,98.24
1737.00,98.23
1736.00,98.23
1735.00,98.22
1734.00,98.21
1733.00,98.21
1732.00,98.21
1731.00,98.21
1730.00,98.21
1729.00,98.21
1728.00,98.21
1727.00,98.20
1726.00,98.20
1725.00,98.19
1724.00,98.18
1723.00,98.18
1722.00,98.19
1721.00,98.20
1720.00,98.21
1719.00,98.21
1718.00,98.19
1717.00,98.18
1716.00,98.17
1715.00,98.16
1714.00,98.15
1713.00,98.14
1712.00,98.14
1711.00,98.14
1710.00,98.14
1709.00,98.14
1708.00,98.14
1707.00,98.14
1706.00,98.13
1705.00,98.12
1704.00,98.11
1703.00,98.11
1702.00,98.11
1701.00,98.11
1700.00,98.11
1699.00,98.10
1698.00,98.10
1697.00,98.10
1696.00,98.10
1695.00,98.09
1694.00,98.09
1693.00,98.08
1692.00,98.06
1691.00,98.04
1690.00,98.01
1689.00,97.98
1688.00,97.96
1687.00,97.94
1686.00,97.92
1685.00,97.88
1684.00,97.80
1683.00,97.73
1682.00,97.67
1681.00,97.60
1680.00,97.53
1679.00,97.48
1678.00,97.43
1677.00,97.38
1676.00,97.30
1675.00,97.22
1674.00,97.13
1673.00,97.06
1672.00,96.97
1671.00,96.88
1670.00,96.76
1669.00,96.62
1668.00,96.47
1667.00,96.35
1666.00,96.23
1665.00,96.12
1664.00,95.97
1663.00,95.80
1662.00,95.63
1661.00,95.47
1660.00,95.30
1659.00,95.15
1658.00,95.01
1657.00,94.89
1656.00,94.78
1655.00,94.68
1654.00,94.51
1653.00,94.24
1652.00,93.97
1651.00,93.77
1650.00,93.64
1649.00,93.51
1648.00,93.33
1647.00,93.09
1646.00,92.81
1645.00,92.55
1644.00,92.32
1643.00,92.11
1642.00,91.90
1641.00,91.69
1640.00,91.48
1639.00,91.29
1638.00,91.12
1637.00,90.95
1636.00,90.77
1635.00,90.60
1634.00,90.47
1633.00,90.41
1632.00,90.41
1631.00,90.46
1630.00,90.57
1629.00,90.74
1628.00,90.93
1627.00,91.13
1626.00,91.32
1625.00,91.51
1624.00,91.73
1623.00,91.97
1622.00,92.20
1621.00,92.39
1620.00,92.57
1619.00,92.76
1618.00,92.99
1617.00,93.28
1616.00,93.55
1615.00,93.78
1614.00,93.96
1613.00,94.12
1612.00,94.30
1611.00,94.48
1610.00,94.67
1609.00,94.84
1608.00,95.02
1607.00,95.20
1606.00,95.38
1605.00,95.56
1604.00,95.74
1603.00,95.91
1602.00,96.08
1601.00,96.22
1600.00,96.36
1599.00,96.49
1598.00,96.61
1597.00,96.72
1596.00,96.82
1595.00,96.92
1594.00,97.00
1593.00,97.08
1592.00,97.15
1591.00,97.21
1590.00,97.25
1589.00,97.29
1588.00,97.33
1587.00,97.36
1586.00,97.38
1585.00,97.39
1584.00,97.40
1583.00,97.41
1582.00,97.42
1581.00,97.42
1580.00,97.42
1579.00,97.41
1578.00,97.40
1577.00,97.37
1576.00,97.33
1575.00,97.28
1574.00,97.23
1573.00,97.16
1572.00,97.08
1571.00,97.00
1570.00,96.89
1569.00,96.77
1568.00,96.65
1567.00,96.55
1566.00,96.45
1565.00,96.34
1564.00,96.24
1563.00,96.16
1562.00,96.09
1561.00,96.02
1560.00,95.93
1559.00,95.77
1558.00,95.59
1557.00,95.44
1556.00,95.30
1555.00,95.17
1554.00,95.02
1553.00,94.87
1552.00,94.73
1551.00,94.58
1550.00,94.42
1549.00,94.26
1548.00,94.12
1547.00,93.99
1546.00,93.86
1545.00,93.72
1544.00,93.60
1543.00,93.50
1542.00,93.41
1541.00,93.30
1540.00,93.17
1539.00,93.03
1538.00,92.87
1537.00,92.74
1536.00,92.62
1535.00,92.52
1534.00,92.45
1533.00,92.42
1532.00,92.43
1531.00,92.47
1530.00,92.53
1529.00,92.61
1528.00,92.74
1527.00,92.89
1526.00,93.05
1525.00,93.23
1524.00,93.39
1523.00,93.57
1522.00,93.77
1521.00,93.98
1520.00,94.17
1519.00,94.31
1518.00,94.45
1517.00,94.60
1516.00,94.76
1515.00,94.90
1514.00,95.03
1513.00,95.15
1512.00,95.28
1511.00,95.40
1510.00,95.52
1509.00,95.63
1508.00,95.76
1507.00,95.92
1506.00,96.08
1505.00,96.20
1504.00,96.27
1503.00,96.33
1502.00,96.40
1501.00,96.49
1500.00,96.58
1499.00,96.66
1498.00,96.74
1497.00,96.81
1496.00,96.88
1495.00,96.95
1494.00,97.01
1493.00,97.06
1492.00,97.11
1491.00,97.17
1490.00,97.22
1489.00,97.26
1488.00,97.29
1487.00,97.30
1486.00,97.30
1485.00,97.27
1484.00,97.23
1483.00,97.16
1482.00,97.05
1481.00,96.92
1480.00,96.76
1479.00,96.59
1478.00,96.41
1477.00,96.22
1476.00,96.03
1475.00,95.87
1474.00,95.77
1473.00,95.76
1472.00,95.81
1471.00,95.86
1470.00,95.87
1469.00,95.84
1468.00,95.77
1467.00,95.68
1466.00,95.56
1465.00,95.45
1464.00,95.38
1463.00,95.37
1462.00,95.41
1461.00,95.48
1460.00,95.57
1459.00,95.66
1458.00,95.76
1457.00,95.85
1456.00,95.93
1455.00,95.98
1454.00,96.02
1453.00,96.07
1452.00,96.12
1451.00,96.17
1450.00,96.22
1449.00,96.26
1448.00,96.29
1447.00,96.30
1446.00,96.30
1445.00,96.30
1444.00,96.29
1443.00,96.28
1442.00,96.25
1441.00,96.23
1440.00,96.22
1439.00,96.21
1438.00,96.22
1437.00,96.22
1436.00,96.23
1435.00,96.23
1434.00,96.23
1433.00,96.24
1432.00,96.26
1431.00,96.29
1430.00,96.32
1429.00,96.34
1428.00,96.35
1427.00,96.34
1426.00,96.32
1425.00,96.26
1424.00,96.19
1423.00,96.10
1422.00,96.01
1421.00,95.90
1420.00,95.75
1419.00,95.57
1418.00,95.42
1417.00,95.35
1416.00,95.37
1415.00,95.45
1414.00,95.57
1413.00,95.72
1412.00,95.87
1411.00,96.02
1410.00,96.17
1409.00,96.29
1408.00,96.40
1407.00,96.49
1406.00,96.57
1405.00,96.63
1404.00,96.68
1403.00,96.72
1402.00,96.76
1401.00,96.79
1400.00,96.81
1399.00,96.83
1398.00,96.84
1397.00,96.84
1396.00,96.84
1395.00,96.83
1394.00,96.82
1393.00,96.81
1392.00,96.79
1391.00,96.78
1390.00,96.76
1389.00,96.75
1388.00,96.73
1387.00,96.70
1386.00,96.69
1385.00,96.68
1384.00,96.68
1383.00,96.67
1382.00,96.65
1381.00,96.62
1380.00,96.58
1379.00,96.54
1378.00,96.50
1377.00,96.45
1376.00,96.39
1375.00,96.32
1374.00,96.25
1373.00,96.18
1372.00,96.13
1371.00,96.08
1370.00,96.04
1369.00,96.00
1368.00,95.96
1367.00,95.93
1366.00,95.91
1365.00,95.90
1364.00,95.92
1363.00,95.95
1362.00,96.01
1361.00,96.07
1360.00,96.14
1359.00,96.21
1358.00,96.27
1357.00,96.33
1356.00,96.38
1355.00,96.42
1354.00,96.46
1353.00,96.50
1352.00,96.53
1351.00,96.55
1350.00,96.57
1349.00,96.59
1348.00,96.61
1347.00,96.63
1346.00,96.64
1345.00,96.65
1344.00,96.66
1343.00,96.66
1342.00,96.66
1341.00,96.66
1340.00,96.66
1339.00,96.67
1338.00,96.68
1337.00,96.69
1336.00,96.70
1335.00,96.71
1334.00,96.71
1333.00,96.72
1332.00,96.71
1331.00,96.70
1330.00,96.68
1329.00,96.65
1328.00,96.63
1327.00,96.60
1326.00,96.57
1325.00,96.53
1324.00,96.49
1323.00,96.45
1322.00,96.41
1321.00,96.38
1320.00,96.36
1319.00,96.36
1318.00,96.38
1317.00,96.41
1316.00,96.45
1315.00,96.49
1314.00,96.53
1313.00,96.55
1312.00,96.57
1311.00,96.57
1310.00,96.57
1309.00,96.57
1308.00,96.56
1307.00,96.55
1306.00,96.54
1305.00,96.53
1304.00,96.52
1303.00,96.51
1302.00,96.50
1301.00,96.50
1300.00,96.50
1299.00,96.50
1298.00,96.50
1297.00,96.49
1296.00,96.48
1295.00,96.46
1294.00,96.44
1293.00,96.42
1292.00,96.40
1291.00,96.38
1290.00,96.35
1289.00,96.31
1288.00,96.26
1287.00,96.21
1286.00,96.14
1285.00,96.05
1284.00,95.95
1283.00,95.85
1282.00,95.73
1281.00,95.61
1280.00,95.48
1279.00,95.34
1278.00,95.21
1277.00,95.09
1276.00,94.99
1275.00,94.92
1274.00,94.86
1273.00,94.82
1272.00,94.80
1271.00,94.79
1270.00,94.80
1269.00,94.81
1268.00,94.83
1267.00,94.86
1266.00,94.89
1265.00,94.92
1264.00,94.96
1263.00,94.99
1262.00,95.03
1261.00,95.08
1260.00,95.14
1259.00,95.20
1258.00,95.27
1257.00,95.33
1256.00,95.39
1255.00,95.44
1254.00,95.49
1253.00,95.54
1252.00,95.58
1251.00,95.63
1250.00,95.67
1249.00,95.70
1248.00,95.74
1247.00,95.77
1246.00,95.80
1245.00,95.83
1244.00,95.85
1243.00,95.87
1242.00,95.88
1241.00,95.90
1240.00,95.91
1239.00,95.93
1238.00,95.95
1237.00,95.97
1236.00,95.99
1235.00,96.02
1234.00,96.05
1233.00,96.09
1232.00,96.13
1231.00,96.18
1230.00,96.22
1229.00,96.26
1228.00,96.28
1227.00,96.30
1226.00,96.30
1225.00,96.30
1224.00,96.30
1223.00,96.30
1222.00,96.33
1221.00,96.36
1220.00,96.40
1219.00,96.44
1218.00,96.46
1217.00,96.48
1216.00,96.48
1215.00,96.48
1214.00,96.47
1213.00,96.46
1212.00,96.44
1211.00,96.41
1210.00,96.37
1209.00,96.31
1208.00,96.22
1207.00,96.11
1206.00,95.98
1205.00,95.83
1204.00,95.65
1203.00,95.46
1202.00,95.26
1201.00,95.09
1200.00,94.96
1199.00,94.89
1198.00,94.90
1197.00,94.98
1196.00,95.11
1195.00,95.26
1194.00,95.42
1193.00,95.57
1192.00,95.70
1191.00,95.81
1190.00,95.90
1189.00,95.96
1188.00,95.99
1187.00,96.00
1186.00,95.98
1185.00,95.95
1184.00,95.91
1183.00,95.86
1182.00,95.80
1181.00,95.74
1180.00,95.69
1179.00,95.67
1178.00,95.66
1177.00,95.68
1176.00,95.71
1175.00,95.76
1174.00,95.82
1173.00,95.88
1172.00,95.93
1171.00,95.97
1170.00,96.02
1169.00,96.07
1168.00,96.12
1167.00,96.17
1166.00,96.22
1165.00,96.26
1164.00,96.31
1163.00,96.35
1162.00,96.38
1161.00,96.41
1160.00,96.43
1159.00,96.45
1158.00,96.47
1157.00,96.47
1156.00,96.47
1155.00,96.46
1154.00,96.45
1153.00,96.42
1152.00,96.39
1151.00,96.36
1150.00,96.33
1149.00,96.31
1148.00,96.29
1147.00,96.28
1146.00,96.28
1145.00,96.29
1144.00,96.29
1143.00,96.29
1142.00,96.28
1141.00,96.26
1140.00,96.25
1139.00,96.25
1138.00,96.27
1137.00,96.31
1136.00,96.37
1135.00,96.44
1134.00,96.52
1133.00,96.59
1132.00,96.64
1131.00,96.67
1130.00,96.69
1129.00,96.70
1128.00,96.71
1127.00,96.71
1126.00,96.71
1125.00,96.72
1124.00,96.72
1123.00,96.72
1122.00,96.71
1121.00,96.70
1120.00,96.69
1119.00,96.70
1118.00,96.71
1117.00,96.71
1116.00,96.72
1115.00,96.72
1114.00,96.73
1113.00,96.73
1112.00,96.73
1111.00,96.73
1110.00,96.72
1109.00,96.73
1108.00,96.74
1107.00,96.75
1106.00,96.76
1105.00,96.75
1104.00,96.76
1103.00,96.77
1102.00,96.79
1101.00,96.81
1100.00,96.82
1099.00,96.82
1098.00,96.80
1097.00,96.78
1096.00,96.77
1095.00,96.75
1094.00,96.74
1093.00,96.74
1092.00,96.74
1091.00,96.74
1090.00,96.74
1089.00,96.75
1088.00,96.76
1087.00,96.76
1086.00,96.77
1085.00,96.78
1084.00,96.80
1083.00,96.83
1082.00,96.85
1081.00,96.86
1080.00,96.88
1079.00,96.88
1078.00,96.89
1077.00,96.89
1076.00,96.88
1075.00,96.88
1074.00,96.89
1073.00,96.90
1072.00,96.91
1071.00,96.92
1070.00,96.92
1069.00,96.92
1068.00,96.92
1067.00,96.91
1066.00,96.91
1065.00,96.90
1064.00,96.90
1063.00,96.91
1062.00,96.91
1061.00,96.93
1060.00,96.95
1059.00,96.96
1058.00,96.97
1057.00,96.97
1056.00,96.98
1055.00,96.98
1054.00,96.99
1053.00,97.01
1052.00,97.02
1051.00,97.02
1050.00,97.02
1049.00,97.02
1048.00,97.01
1047.00,97.00
1046.00,97.00
1045.00,97.00
1044.00,97.01
1043.00,97.01
1042.00,97.01
1041.00,97.01
1040.00,97.01
1039.00,97.01
1038.00,97.02
1037.00,97.02
1036.00,97.02
1035.00,97.03
1034.00,97.04
1033.00,97.06
1032.00,97.08
1031.00,97.11
1030.00,97.12
1029.00,97.13
1028.00,97.14
1027.00,97.15
1026.00,97.15
1025.00,97.15
1024.00,97.15
1023.00,97.16
1022.00,97.16
1021.00,97.17
1020.00,97.17
1019.00,97.17
1018.00,97.17
1017.00,97.17
1016.00,97.18
1015.00,97.20
1014.00,97.23
1013.00,97.25
1012.00,97.27
1011.00,97.29
1010.00,97.31
1009.00,97.34
1008.00,97.37
1007.00,97.41
1006.00,97.44
1005.00,97.46
1004.00,97.48
1003.00,97.50
1002.00,97.51
1001.00,97.52
1000.00,97.53
999.00,97.55
998.00,97.57
997.00,97.58
996.00,97.59
995.00,97.59
994.00,97.59
993.00,97.60
992.00,97.60
991.00,97.61
990.00,97.62
989.00,97.63
988.00,97.63
987.00,97.63
986.00,97.63
985.00,97.63
984.00,97.64
983.00,97.66
982.00,97.68
981.00,97.71
980.00,97.74
979.00,97.76
978.00,97.77
977.00,97.78
976.00,97.78
975.00,97.78
974.00,97.78
973.00,97.77
972.00,97.77
971.00,97.77
970.00,97.77
969.00,97.78
968.00,97.78
967.00,97.78
966.00,97.78
965.00,97.78
964.00,97.78
963.00,97.78
962.00,97.77
961.00,97.77
960.00,97.76
959.00,97.75
958.00,97.74
957.00,97.74
956.00,97.74
955.00,97.74
954.00,97.73
953.00,97.73
952.00,97.72
951.00,97.71
950.00,97.70
949.00,97.69
948.00,97.67
947.00,97.65
946.00,97.62
945.00,97.58
944.00,97.53
943.00,97.46
942.00,97.38
941.00,97.27
940.00,97.15
939.00,97.01
938.00,96.86
937.00,96.72
936.00,96.61
935.00,96.56
934.00,96.57
933.00,96.61
932.00,96.69
931.00,96.78
930.00,96.88
929.00,96.98
928.00,97.07
927.00,97.15
926.00,97.21
925.00,97.27
924.00,97.33
923.00,97.38
922.00,97.42
921.00,97.46
920.00,97.49
919.00,97.52
918.00,97.53
917.00,97.55
916.00,97.58
915.00,97.61
914.00,97.63
913.00,97.65
912.00,97.64
911.00,97.63
910.00,97.61
909.00,97.58
908.00,97.56
907.00,97.54
906.00,97.54
905.00,97.54
904.00,97.56
903.00,97.59
902.00,97.64
901.00,97.68
900.00,97.73
899.00,97.76
898.00,97.79
897.00,97.82
896.00,97.84
895.00,97.86
894.00,97.86
893.00,97.87
892.00,97.87
891.00,97.87
890.00,97.88
889.00,97.88
888.00,97.89
887.00,97.89
886.00,97.88
885.00,97.88
884.00,97.88
883.00,97.89
882.00,97.90
881.00,97.90
880.00,97.91
879.00,97.91
878.00,97.91
877.00,97.91
876.00,97.90
875.00,97.89
874.00,97.90
873.00,97.90
872.00,97.91
871.00,97.92
870.00,97.92
869.00,97.92
868.00,97.92
867.00,97.92
866.00,97.92
865.00,97.92
864.00,97.91
863.00,97.90
862.00,97.89
861.00,97.88
860.00,97.88
859.00,97.87
858.00,97.87
857.00,97.87
856.00,97.87
855.00,97.87
854.00,97.86
853.00,97.86
852.00,97.86
851.00,97.85
850.00,97.84
849.00,97.82
848.00,97.82
847.00,97.81
846.00,97.81
845.00,97.81
844.00,97.81
843.00,97.81
842.00,97.80
841.00,97.80
840.00,97.79
839.00,97.77
838.00,97.75
837.00,97.73
836.00,97.70
835.00,97.67
834.00,97.64
833.00,97.62
832.00,97.60
831.00,97.57
830.00,97.55
829.00,97.52
828.00,97.49
827.00,97.46
826.00,97.43
825.00,97.40
824.00,97.38
823.00,97.37
822.00,97.35
821.00,97.34
820.00,97.33
819.00,97.32
818.00,97.32
817.00,97.33
816.00,97.33
815.00,97.33
814.00,97.33
813.00,97.34
812.00,97.33
811.00,97.32
810.00,97.32
809.00,97.31
808.00,97.31
807.00,97.30
806.00,97.27
805.00,97.25
804.00,97.23
803.00,97.21
802.00,97.19
801.00,97.16
800.00,97.12
799.00,97.09
798.00,97.05
797.00,97.04
796.00,97.03
795.00,97.03
794.00,97.03
793.00,97.03
792.00,97.03
791.00,97.03
790.00,97.04
789.00,97.04
788.00,97.03
787.00,97.02
786.00,97.00
785.00,96.97
784.00,96.94
783.00,96.92
782.00,96.90
781.00,96.89
780.00,96.88
779.00,96.86
778.00,96.83
777.00,96.80
776.00,96.77
775.00,96.74
774.00,96.72
773.00,96.70
772.00,96.67
771.00,96.64
770.00,96.61
769.00,96.59
768.00,96.56
767.00,96.54
766.00,96.51
765.00,96.48
764.00,96.45
763.00,96.42
762.00,96.39
761.00,96.36
760.00,96.33
759.00,96.30
758.00,96.26
757.00,96.23
756.00,96.20
755.00,96.17
754.00,96.14
753.00,96.11
752.00,96.08
751.00,96.05
750.00,96.02
749.00,96.00
748.00,95.97
747.00,95.95
746.00,95.92
745.00,95.89
744.00,95.84
743.00,95.79
742.00,95.73
741.00,95.65
740.00,95.56
739.00,95.46
738.00,95.34
737.00,95.22
736.00,95.08
735.00,94.92
734.00,94.74
733.00,94.56
732.00,94.37
731.00,94.20
730.00,94.07
729.00,93.99
728.00,93.96
727.00,93.97
726.00,94.00
725.00,94.03
724.00,94.04
723.00,94.04
722.00,94.03
721.00,94.03
720.00,94.03
719.00,94.03
718.00,94.02
717.00,94.01
716.00,93.99
715.00,93.97
714.00,93.94
713.00,93.92
712.00,93.88
711.00,93.84
710.00,93.79
709.00,93.74
708.00,93.68
707.00,93.63
706.00,93.57
705.00,93.50
704.00,93.42
703.00,93.34
702.00,93.24
701.00,93.14
700.00,93.02
699.00,92.91
698.00,92.79
697.00,92.67
696.00,92.54
695.00,92.41
694.00,92.28
693.00,92.16
692.00,92.05
691.00,91.95
690.00,91.87
689.00,91.79
688.00,91.72
687.00,91.67
686.00,91.64
685.00,91.64
684.00,91.65
683.00,91.66
682.00,91.66
681.00,91.66
680.00,91.68
679.00,91.71
678.00,91.77
677.00,91.84
676.00,91.91
675.00,91.97
674.00,92.05
673.00,92.13
672.00,92.22
671.00,92.33
670.00,92.49
669.00,92.73
668.00,92.94
667.00,92.98
666.00,92.90
665.00,92.84
664.00,92.83
663.00,92.88
662.00,92.95
661.00,93.02
660.00,93.07
659.00,93.13
658.00,93.19
657.00,93.25
656.00,93.31
655.00,93.37
654.00,93.42
653.00,93.46
652.00,93.51
651.00,93.57
650.00,93.62
649.00,93.67
648.00,93.72
647.00,93.76
646.00,93.79
645.00,93.81
644.00,93.82
643.00,93.83
642.00,93.85
641.00,93.86
640.00,93.89
639.00,93.91
638.00,93.93
637.00,93.94
636.00,93.96
635.00,93.97
634.00,93.98
633.00,93.98
632.00,93.97
631.00,93.96
630.00,93.96
629.00,93.95
628.00,93.95
627.00,93.94
626.00,93.92
625.00,93.91
624.00,93.89
623.00,93.88
622.00,93.88
621.00,93.87
620.00,93.85
619.00,93.81
618.00,93.78
617.00,93.75
616.00,93.73
615.00,93.73
614.00,93.74
613.00,93.77
612.00,93.78
611.00,93.78
610.00,93.75
609.00,93.71
608.00,93.66
607.00,93.61
606.00,93.55
605.00,93.51
604.00,93.48
603.00,93.46
602.00,93.43
601.00,93.38
600.00,93.32
599.00,93.27
598.00,93.22
597.00,93.15
596.00,93.06
595.00,92.97
594.00,92.88
593.00,92.80
592.00,92.72
591.00,92.62
590.00,92.50
589.00,92.36
588.00,92.19
587.00,92.00
586.00,91.79
585.00,91.56
584.00,91.31
583.00,91.07
582.00,90.87
581.00,90.70
580.00,90.57
579.00,90.48
578.00,90.44
577.00,90.45
576.00,90.51
575.00,90.61
574.00,90.76
573.00,90.93
572.00,91.11
571.00,91.30
570.00,91.49
569.00,91.67
568.00,91.81
567.00,91.94
566.00,92.05
565.00,92.18
564.00,92.30
563.00,92.44
562.00,92.56
561.00,92.64
560.00,92.70
559.00,92.74
558.00,92.79
557.00,92.85
556.00,92.93
555.00,93.00
554.00,93.07
553.00,93.12
552.00,93.14
551.00,93.16
550.00,93.20
549.00,93.25
548.00,93.29
547.00,93.31
546.00,93.32
545.00,93.33
544.00,93.35
543.00,93.37
542.00,93.37
541.00,93.35
540.00,93.29
539.00,93.22
538.00,93.14
537.00,93.05
536.00,92.96
535.00,92.89
534.00,92.85
533.00,92.82
532.00,92.80
531.00,92.80
530.00,92.81
529.00,92.83
528.00,92.86
527.00,92.89
526.00,92.93
525.00,92.95
524.00,92.96
523.00,92.96
522.00,92.95
521.00,92.94
520.00,92.93
519.00,92.92
518.00,92.92
517.00,92.94
516.00,92.96
515.00,92.98
514.00,93.00
513.00,93.01
512.00,93.01
511.00,93.02
510.00,93.03
509.00,93.04
508.00,93.05
507.00,93.04
506.00,93.04
505.00,93.06
504.00,93.10
503.00,93.16
502.00,93.22
501.00,93.26
500.00,93.28
499.00,93.31
498.00,93.35
497.00,93.41
496.00,93.46
495.00,93.49
494.00,93.50
493.00,93.53
492.00,93.55
491.00,93.57
490.00,93.58
489.00,93.61
488.00,93.66
487.00,93.71
486.00,93.75
485.00,93.82
484.00,93.89
483.00,93.95
482.00,93.97
481.00,94.00
480.00,94.04
479.00,94.09
478.00,94.13
477.00,94.14
476.00,94.14
475.00,94.12
474.00,94.08
473.00,94.03
472.00,94.01
471.00,94.03
470.00,94.06
469.00,94.11
468.00,94.18
467.00,94.26
466.00,94.31
465.00,94.30
464.00,94.27
463.00,94.22
462.00,94.18
461.00,94.16
460.00,94.19
459.00,94.27
458.00,94.34
457.00,94.34
456.00,94.29
455.00,94.23
454.00,94.18
453.00,94.14
452.00,94.14
451.00,94.15
450.00,94.15
449.00,94.14
448.00,94.14
447.00,94.16
446.00,94.17
445.00,94.19
444.00,94.24
443.00,94.35
442.00,94.46
441.00,94.52
440.00,94.53
439.00,94.51
438.00,94.49
437.00,94.48
436.00,94.52
435.00,94.57
434.00,94.61
433.00,94.63
432.00,94.66
431.00,94.71
430.00,94.73
429.00,94.68
428.00,94.61
427.00,94.57
426.00,94.57
425.00,94.56
424.00,94.51
423.00,94.48
422.00,94.48
421.00,94.45
420.00,94.34
419.00,94.14
418.00,93.97
417.00,93.88
416.00,93.83
415.00,93.79
414.00,93.72
413.00,93.59
412.00,93.41
411.00,93.24
410.00,93.18
409.00,93.22
408.00,93.27
407.00,93.23
406.00,93.07
405.00,92.89
404.00,92.82
403.00,92.90
402.00,93.07
401.00,93.17
400.00,93.03
